# === DATA DESCRIPTION FILE ======================================================
#
# CAUTION - Investigational device.
# Limited by Federal Law to investigational use.
#
# Dataset name: E:\\Export\100029_3_T1_3_1
#
# CLINICAL TRYOUT             Research image export tool     V4.2
#
# === GENERAL INFORMATION ========================================================
#
.    Patient name                       :   Nesda006^^^^
.    Examination name                   :   MRI SCHEDEL
.    Protocol name                      :   T1_oldprot SENSE
.    Examination date/time              :   2014.06.12 / 20:48:54
.    Series Type                        :   Image   MRSERIES
.    Acquisition nr                     :   3
.    Reconstruction nr                  :   1
.    Scan Duration [sec]                :   271
.    Max. number of cardiac phases      :   1
.    Max. number of echoes              :   1
.    Max. number of slices/locations    :   170
.    Max. number of dynamics            :   1
.    Max. number of mixes               :   1
.    Patient position                   :   Head First Supine
.    Preparation direction              :   Anterior-Posterior
.    Technique                          :   T1TFE
.    Scan resolution  (x, y)            :   256  256
.    Scan mode                          :   3D
.    Repetition time [ms]               :   9.000  
.    FOV (ap,fh,rl) [mm]                :   256.000  256.000  170.000
.    Water Fat shift [pixels]           :   2.268
.    Angulation midslice(ap,fh,rl)[degr]:   -4.379  -3.635  -0.234
.    Off Centre midslice(ap,fh,rl) [mm] :   -0.161  0.526  -4.602
.    Flow compensation <0=no 1=yes> ?   :   0
.    Presaturation     <0=no 1=yes> ?   :   0
.    Phase encoding velocity [cm/sec]   :   0.000000  0.000000  0.000000
.    MTC               <0=no 1=yes> ?   :   0
.    SPIR              <0=no 1=yes> ?   :   0
.    EPI factor        <0,1=no EPI>     :   1
.    Dynamic scan      <0=no 1=yes> ?   :   0
.    Diffusion         <0=no 1=yes> ?   :   0
.    Diffusion echo time [ms]           :   0.0000
.    Max. number of diffusion values    :   1
.    Max. number of gradient orients    :   1
.    Number of label types   <0=no ASL> :   0
#
# === PIXEL VALUES =============================================================
#  PV = pixel value in REC file, FP = floating point value, DV = displayed value on console
#  RS = rescale slope,           RI = rescale intercept,    SS = scale slope
#  DV = PV * RS + RI             FP = DV / (RS * SS)
#
# === IMAGE INFORMATION DEFINITION =============================================
#  The rest of this file contains ONE line per image, this line contains the following information:
#
#  slice number                             (integer)
#  echo number                              (integer)
#  dynamic scan number                      (integer)
#  cardiac phase number                     (integer)
#  image_type_mr                            (integer)
#  scanning sequence                        (integer)
#  index in REC file (in images)            (integer)
#  image pixel size (in bits)               (integer)
#  scan percentage                          (integer)
#  recon resolution (x y)                   (2*integer)
#  rescale intercept                        (float)
#  rescale slope                            (float)
#  scale slope                              (float)
#  window center                            (integer)
#  window width                             (integer)
#  image angulation (ap,fh,rl in degrees )  (3*float)
#  image offcentre (ap,fh,rl in mm )        (3*float)
#  slice thickness (in mm )                 (float)
#  slice gap (in mm )                       (float)
#  image_display_orientation                (integer)
#  slice orientation ( TRA/SAG/COR )        (integer)
#  fmri_status_indication                   (integer)
#  image_type_ed_es  (end diast/end syst)   (integer)
#  pixel spacing (x,y) (in mm)              (2*float)
#  echo_time                                (float)
#  dyn_scan_begin_time                      (float)
#  trigger_time                             (float)
#  diffusion_b_factor                       (float)
#  number of averages                       (integer)
#  image_flip_angle (in degrees)            (float)
#  cardiac frequency   (bpm)                (integer)
#  minimum RR-interval (in ms)              (integer)
#  maximum RR-interval (in ms)              (integer)
#  TURBO factor  <0=no turbo>               (integer)
#  Inversion delay (in ms)                  (float)
#  diffusion b value number    (imagekey!)  (integer)
#  gradient orientation number (imagekey!)  (integer)
#  contrast type                            (string)
#  diffusion anisotropy type                (string)
#  diffusion (ap, fh, rl)                   (3*float)
#  label type (ASL)            (imagekey!)  (integer)
#
# === IMAGE INFORMATION ==========================================================
#  sl ec  dyn ph ty    idx pix scan% rec size                (re)scale              window        angulation              offcentre        thick   gap   info      spacing     echo     dtime   ttime    diff  avg  flip    freq   RR-int  turbo delay b grad cont anis         diffusion       L.ty

  1   1    1  1 0 2     0  16    78  256  256     0.00000  11.25958 3.86216e-004    21    36  -4.38  -3.64  -0.23   -5.49    6.99   79.48  1.000  0.000 0 2 0 2  1.000  1.000   3.51    0.00     0.00    0.00   1    8.00     0    0    0   162   0.0  1   1    7    0   0.000    0.000    0.000  1
  2   1    1  1 0 2     1  16    78  256  256     0.00000  11.25958 3.86216e-004    22    38  -4.38  -3.64  -0.23   -5.43    6.91   78.49  1.000  0.000 0 2 0 2  1.000  1.000   3.51    0.00     0.00    0.00   1    8.00     0    0    0   162   0.0  1   1    7    0   0.000    0.000    0.000  1
  3   1    1  1 0 2     2  16    78  256  256     0.00000  11.25958 3.86216e-004    23    41  -4.38  -3.64  -0.23   -5.37    6.83   77.49  1.000  0.000 0 2 0 2  1.000  1.000   3.51    0.00     0.00    0.00   1    8.00     0    0    0   162   0.0  1   1    7    0   0.000    0.000    0.000  1
  4   1    1  1 0 2     3  16    78  256  256     0.00000  11.25958 3.86216e-004    27    47  -4.38  -3.64  -0.23   -5.30    6.76   76.50  1.000  0.000 0 2 0 2  1.000  1.000   3.51    0.00     0.00    0.00   1    8.00     0    0    0   162   0.0  1   1    7    0   0.000    0.000    0.000  1
  5   1    1  1 0 2     4  16    78  256  256     0.00000  11.25958 3.86216e-004    64   111  -4.38  -3.64  -0.23   -5.24    6.68   75.50  1.000  0.000 0 2 0 2  1.000  1.000   3.51    0.00     0.00    0.00   1    8.00     0    0    0   162   0.0  1   1    7    0   0.000    0.000    0.000  1
  6   1    1  1 0 2     5  16    78  256  256     0.00000  11.25958 3.86216e-004    97   168  -4.38  -3.64  -0.23   -5.18    6.60   74.51  1.000  0.000 0 2 0 2  1.000  1.000   3.51    0.00     0.00    0.00   1    8.00     0    0    0   162   0.0  1   1    7    0   0.000    0.000    0.000  1
  7   1    1  1 0 2     6  16    78  256  256     0.00000  11.25958 3.86216e-004   255   443  -4.38  -3.64  -0.23   -5.11    6.53   73.51  1.000  0.000 0 2 0 2  1.000  1.000   3.51    0.00     0.00    0.00   1    8.00     0    0    0   162   0.0  1   1    7    0   0.000    0.000    0.000  1
  8   1    1  1 0 2     7  16    78  256  256     0.00000  11.25958 3.86216e-004   307   534  -4.38  -3.64  -0.23   -5.05    6.45   72.52  1.000  0.000 0 2 0 2  1.000  1.000   3.51    0.00     0.00    0.00   1    8.00     0    0    0   162   0.0  1   1    7    0   0.000    0.000    0.000  1
  9   1    1  1 0 2     8  16    78  256  256     0.00000  11.25958 3.86216e-004   331   575  -4.38  -3.64  -0.23   -4.99    6.37   71.52  1.000  0.000 0 2 0 2  1.000  1.000   3.51    0.00     0.00    0.00   1    8.00     0    0    0   162   0.0  1   1    7    0   0.000    0.000    0.000  1
 10   1    1  1 0 2     9  16    78  256  256     0.00000  11.25958 3.86216e-004   307   533  -4.38  -3.64  -0.23   -4.92    6.30   70.53  1.000  0.000 0 2 0 2  1.000  1.000   3.51    0.00     0.00    0.00   1    8.00     0    0    0   162   0.0  1   1    7    0   0.000    0.000    0.000  1
 11   1    1  1 0 2    10  16    78  256  256     0.00000  11.25958 3.86216e-004   464   806  -4.38  -3.64  -0.23   -4.86    6.22   69.53  1.000  0.000 0 2 0 2  1.000  1.000   3.51    0.00     0.00    0.00   1    8.00     0    0    0   162   0.0  1   1    7    0   0.000    0.000    0.000  1
 12   1    1  1 0 2    11  16    78  256  256     0.00000  11.25958 3.86216e-004   536   931  -4.38  -3.64  -0.23   -4.80    6.15   68.54  1.000  0.000 0 2 0 2  1.000  1.000   3.51    0.00     0.00    0.00   1    8.00     0    0    0   162   0.0  1   1    7    0   0.000    0.000    0.000  1
 13   1    1  1 0 2    12  16    78  256  256     0.00000  11.25958 3.86216e-004   767  1333  -4.38  -3.64  -0.23   -4.74    6.07   67.54  1.000  0.000 0 2 0 2  1.000  1.000   3.51    0.00     0.00    0.00   1    8.00     0    0    0   162   0.0  1   1    7    0   0.000    0.000    0.000  1
 14   1    1  1 0 2    13  16    78  256  256     0.00000  11.25958 3.86216e-004   847  1472  -4.38  -3.64  -0.23   -4.67    5.99   66.55  1.000  0.000 0 2 0 2  1.000  1.000   3.51    0.00     0.00    0.00   1    8.00     0    0    0   162   0.0  1   1    7    0   0.000    0.000    0.000  1
 15   1    1  1 0 2    14  16    78  256  256     0.00000  11.25958 3.86216e-004   858  1492  -4.38  -3.64  -0.23   -4.61    5.92   65.55  1.000  0.000 0 2 0 2  1.000  1.000   3.51    0.00     0.00    0.00   1    8.00     0    0    0   162   0.0  1   1    7    0   0.000    0.000    0.000  1
 16   1    1  1 0 2    15  16    78  256  256     0.00000  11.25958 3.86216e-004   892  1550  -4.38  -3.64  -0.23   -4.55    5.84   64.56  1.000  0.000 0 2 0 2  1.000  1.000   3.51    0.00     0.00    0.00   1    8.00     0    0    0   162   0.0  1   1    7    0   0.000    0.000    0.000  1
 17   1    1  1 0 2    16  16    78  256  256     0.00000  11.25958 3.86216e-004   864  1502  -4.38  -3.64  -0.23   -4.48    5.76   63.56  1.000  0.000 0 2 0 2  1.000  1.000   3.51    0.00     0.00    0.00   1    8.00     0    0    0   162   0.0  1   1    7    0   0.000    0.000    0.000  1
 18   1    1  1 0 2    17  16    78  256  256     0.00000  11.25958 3.86216e-004   856  1488  -4.38  -3.64  -0.23   -4.42    5.69   62.57  1.000  0.000 0 2 0 2  1.000  1.000   3.51    0.00     0.00    0.00   1    8.00     0    0    0   162   0.0  1   1    7    0   0.000    0.000    0.000  1
 19   1    1  1 0 2    18  16    78  256  256     0.00000  11.25958 3.86216e-004   865  1504  -4.38  -3.64  -0.23   -4.36    5.61   61.57  1.000  0.000 0 2 0 2  1.000  1.000   3.51    0.00     0.00    0.00   1    8.00     0    0    0   162   0.0  1   1    7    0   0.000    0.000    0.000  1
 20   1    1  1 0 2    19  16    78  256  256     0.00000  11.25958 3.86216e-004   864  1502  -4.38  -3.64  -0.23   -4.29    5.53   60.58  1.000  0.000 0 2 0 2  1.000  1.000   3.51    0.00     0.00    0.00   1    8.00     0    0    0   162   0.0  1   1    7    0   0.000    0.000    0.000  1
 21   1    1  1 0 2    20  16    78  256  256     0.00000  11.25958 3.86216e-004   845  1470  -4.38  -3.64  -0.23   -4.23    5.46   59.58  1.000  0.000 0 2 0 2  1.000  1.000   3.51    0.00     0.00    0.00   1    8.00     0    0    0   162   0.0  1   1    7    0   0.000    0.000    0.000  1
 22   1    1  1 0 2    21  16    78  256  256     0.00000  11.25958 3.86216e-004   841  1462  -4.38  -3.64  -0.23   -4.17    5.38   58.59  1.000  0.000 0 2 0 2  1.000  1.000   3.51    0.00     0.00    0.00   1    8.00     0    0    0   162   0.0  1   1    7    0   0.000    0.000    0.000  1
 23   1    1  1 0 2    22  16    78  256  256     0.00000  11.25958 3.86216e-004   851  1480  -4.38  -3.64  -0.23   -4.10    5.30   57.59  1.000  0.000 0 2 0 2  1.000  1.000   3.51    0.00     0.00    0.00   1    8.00     0    0    0   162   0.0  1   1    7    0   0.000    0.000    0.000  1
 24   1    1  1 0 2    23  16    78  256  256     0.00000  11.25958 3.86216e-004   836  1453  -4.38  -3.64  -0.23   -4.04    5.23   56.60  1.000  0.000 0 2 0 2  1.000  1.000   3.51    0.00     0.00    0.00   1    8.00     0    0    0   162   0.0  1   1    7    0   0.000    0.000    0.000  1
 25   1    1  1 0 2    24  16    78  256  256     0.00000  11.25958 3.86216e-004   818  1422  -4.38  -3.64  -0.23   -3.98    5.15   55.60  1.000  0.000 0 2 0 2  1.000  1.000   3.51    0.00     0.00    0.00   1    8.00     0    0    0   162   0.0  1   1    7    0   0.000    0.000    0.000  1
 26   1    1  1 0 2    25  16    78  256  256     0.00000  11.25958 3.86216e-004   836  1453  -4.38  -3.64  -0.23   -3.92    5.07   54.61  1.000  0.000 0 2 0 2  1.000  1.000   3.51    0.00     0.00    0.00   1    8.00     0    0    0   162   0.0  1   1    7    0   0.000    0.000    0.000  1
 27   1    1  1 0 2    26  16    78  256  256     0.00000  11.25958 3.86216e-004   830  1443  -4.38  -3.64  -0.23   -3.85    5.00   53.61  1.000  0.000 0 2 0 2  1.000  1.000   3.51    0.00     0.00    0.00   1    8.00     0    0    0   162   0.0  1   1    7    0   0.000    0.000    0.000  1
 28   1    1  1 0 2    27  16    78  256  256     0.00000  11.25958 3.86216e-004   840  1461  -4.38  -3.64  -0.23   -3.79    4.92   52.61  1.000  0.000 0 2 0 2  1.000  1.000   3.51    0.00     0.00    0.00   1    8.00     0    0    0   162   0.0  1   1    7    0   0.000    0.000    0.000  1
 29   1    1  1 0 2    28  16    78  256  256     0.00000  11.25958 3.86216e-004   863  1500  -4.38  -3.64  -0.23   -3.73    4.85   51.62  1.000  0.000 0 2 0 2  1.000  1.000   3.51    0.00     0.00    0.00   1    8.00     0    0    0   162   0.0  1   1    7    0   0.000    0.000    0.000  1
 30   1    1  1 0 2    29  16    78  256  256     0.00000  11.25958 3.86216e-004   890  1547  -4.38  -3.64  -0.23   -3.66    4.77   50.62  1.000  0.000 0 2 0 2  1.000  1.000   3.51    0.00     0.00    0.00   1    8.00     0    0    0   162   0.0  1   1    7    0   0.000    0.000    0.000  1
 31   1    1  1 0 2    30  16    78  256  256     0.00000  11.25958 3.86216e-004   856  1489  -4.38  -3.64  -0.23   -3.60    4.69   49.63  1.000  0.000 0 2 0 2  1.000  1.000   3.51    0.00     0.00    0.00   1    8.00     0    0    0   162   0.0  1   1    7    0   0.000    0.000    0.000  1
 32   1    1  1 0 2    31  16    78  256  256     0.00000  11.25958 3.86216e-004   849  1476  -4.38  -3.64  -0.23   -3.54    4.62   48.63  1.000  0.000 0 2 0 2  1.000  1.000   3.51    0.00     0.00    0.00   1    8.00     0    0    0   162   0.0  1   1    7    0   0.000    0.000    0.000  1
 33   1    1  1 0 2    32  16    78  256  256     0.00000  11.25958 3.86216e-004   848  1474  -4.38  -3.64  -0.23   -3.47    4.54   47.64  1.000  0.000 0 2 0 2  1.000  1.000   3.51    0.00     0.00    0.00   1    8.00     0    0    0   162   0.0  1   1    7    0   0.000    0.000    0.000  1
 34   1    1  1 0 2    33  16    78  256  256     0.00000  11.25958 3.86216e-004   845  1470  -4.38  -3.64  -0.23   -3.41    4.46   46.64  1.000  0.000 0 2 0 2  1.000  1.000   3.51    0.00     0.00    0.00   1    8.00     0    0    0   162   0.0  1   1    7    0   0.000    0.000    0.000  1
 35   1    1  1 0 2    34  16    78  256  256     0.00000  11.25958 3.86216e-004   853  1483  -4.38  -3.64  -0.23   -3.35    4.39   45.65  1.000  0.000 0 2 0 2  1.000  1.000   3.51    0.00     0.00    0.00   1    8.00     0    0    0   162   0.0  1   1    7    0   0.000    0.000    0.000  1
 36   1    1  1 0 2    35  16    78  256  256     0.00000  11.25958 3.86216e-004   825  1435  -4.38  -3.64  -0.23   -3.28    4.31   44.65  1.000  0.000 0 2 0 2  1.000  1.000   3.51    0.00     0.00    0.00   1    8.00     0    0    0   162   0.0  1   1    7    0   0.000    0.000    0.000  1
 37   1    1  1 0 2    36  16    78  256  256     0.00000  11.25958 3.86216e-004   831  1444  -4.38  -3.64  -0.23   -3.22    4.23   43.66  1.000  0.000 0 2 0 2  1.000  1.000   3.51    0.00     0.00    0.00   1    8.00     0    0    0   162   0.0  1   1    7    0   0.000    0.000    0.000  1
 38   1    1  1 0 2    37  16    78  256  256     0.00000  11.25958 3.86216e-004   849  1475  -4.38  -3.64  -0.23   -3.16    4.16   42.66  1.000  0.000 0 2 0 2  1.000  1.000   3.51    0.00     0.00    0.00   1    8.00     0    0    0   162   0.0  1   1    7    0   0.000    0.000    0.000  1
 39   1    1  1 0 2    38  16    78  256  256     0.00000  11.25958 3.86216e-004   847  1472  -4.38  -3.64  -0.23   -3.10    4.08   41.67  1.000  0.000 0 2 0 2  1.000  1.000   3.51    0.00     0.00    0.00   1    8.00     0    0    0   162   0.0  1   1    7    0   0.000    0.000    0.000  1
 40   1    1  1 0 2    39  16    78  256  256     0.00000  11.25958 3.86216e-004   860  1495  -4.38  -3.64  -0.23   -3.03    4.00   40.67  1.000  0.000 0 2 0 2  1.000  1.000   3.51    0.00     0.00    0.00   1    8.00     0    0    0   162   0.0  1   1    7    0   0.000    0.000    0.000  1
 41   1    1  1 0 2    40  16    78  256  256     0.00000  11.25958 3.86216e-004   852  1482  -4.38  -3.64  -0.23   -2.97    3.93   39.68  1.000  0.000 0 2 0 2  1.000  1.000   3.51    0.00     0.00    0.00   1    8.00     0    0    0   162   0.0  1   1    7    0   0.000    0.000    0.000  1
 42   1    1  1 0 2    41  16    78  256  256     0.00000  11.25958 3.86216e-004   862  1498  -4.38  -3.64  -0.23   -2.91    3.85   38.68  1.000  0.000 0 2 0 2  1.000  1.000   3.51    0.00     0.00    0.00   1    8.00     0    0    0   162   0.0  1   1    7    0   0.000    0.000    0.000  1
 43   1    1  1 0 2    42  16    78  256  256     0.00000  11.25958 3.86216e-004   880  1530  -4.38  -3.64  -0.23   -2.84    3.78   37.69  1.000  0.000 0 2 0 2  1.000  1.000   3.51    0.00     0.00    0.00   1    8.00     0    0    0   162   0.0  1   1    7    0   0.000    0.000    0.000  1
 44   1    1  1 0 2    43  16    78  256  256     0.00000  11.25958 3.86216e-004   871  1514  -4.38  -3.64  -0.23   -2.78    3.70   36.69  1.000  0.000 0 2 0 2  1.000  1.000   3.51    0.00     0.00    0.00   1    8.00     0    0    0   162   0.0  1   1    7    0   0.000    0.000    0.000  1
 45   1    1  1 0 2    44  16    78  256  256     0.00000  11.25958 3.86216e-004   876  1522  -4.38  -3.64  -0.23   -2.72    3.62   35.70  1.000  0.000 0 2 0 2  1.000  1.000   3.51    0.00     0.00    0.00   1    8.00     0    0    0   162   0.0  1   1    7    0   0.000    0.000    0.000  1
 46   1    1  1 0 2    45  16    78  256  256     0.00000  11.25958 3.86216e-004   866  1506  -4.38  -3.64  -0.23   -2.65    3.55   34.70  1.000  0.000 0 2 0 2  1.000  1.000   3.51    0.00     0.00    0.00   1    8.00     0    0    0   162   0.0  1   1    7    0   0.000    0.000    0.000  1
 47   1    1  1 0 2    46  16    78  256  256     0.00000  11.25958 3.86216e-004   880  1529  -4.38  -3.64  -0.23   -2.59    3.47   33.71  1.000  0.000 0 2 0 2  1.000  1.000   3.51    0.00     0.00    0.00   1    8.00     0    0    0   162   0.0  1   1    7    0   0.000    0.000    0.000  1
 48   1    1  1 0 2    47  16    78  256  256     0.00000  11.25958 3.86216e-004   891  1549  -4.38  -3.64  -0.23   -2.53    3.39   32.71  1.000  0.000 0 2 0 2  1.000  1.000   3.51    0.00     0.00    0.00   1    8.00     0    0    0   162   0.0  1   1    7    0   0.000    0.000    0.000  1
 49   1    1  1 0 2    48  16    78  256  256     0.00000  11.25958 3.86216e-004   881  1531  -4.38  -3.64  -0.23   -2.46    3.32   31.72  1.000  0.000 0 2 0 2  1.000  1.000   3.51    0.00     0.00    0.00   1    8.00     0    0    0   162   0.0  1   1    7    0   0.000    0.000    0.000  1
 50   1    1  1 0 2    49  16    78  256  256     0.00000  11.25958 3.86216e-004   909  1580  -4.38  -3.64  -0.23   -2.40    3.24   30.72  1.000  0.000 0 2 0 2  1.000  1.000   3.51    0.00     0.00    0.00   1    8.00     0    0    0   162   0.0  1   1    7    0   0.000    0.000    0.000  1
 51   1    1  1 0 2    50  16    78  256  256     0.00000  11.25958 3.86216e-004   914  1589  -4.38  -3.64  -0.23   -2.34    3.16   29.73  1.000  0.000 0 2 0 2  1.000  1.000   3.51    0.00     0.00    0.00   1    8.00     0    0    0   162   0.0  1   1    7    0   0.000    0.000    0.000  1
 52   1    1  1 0 2    51  16    78  256  256     0.00000  11.25958 3.86216e-004   881  1531  -4.38  -3.64  -0.23   -2.27    3.09   28.73  1.000  0.000 0 2 0 2  1.000  1.000   3.51    0.00     0.00    0.00   1    8.00     0    0    0   162   0.0  1   1    7    0   0.000    0.000    0.000  1
 53   1    1  1 0 2    52  16    78  256  256     0.00000  11.25958 3.86216e-004   902  1567  -4.38  -3.64  -0.23   -2.21    3.01   27.74  1.000  0.000 0 2 0 2  1.000  1.000   3.51    0.00     0.00    0.00   1    8.00     0    0    0   162   0.0  1   1    7    0   0.000    0.000    0.000  1
 54   1    1  1 0 2    53  16    78  256  256     0.00000  11.25958 3.86216e-004   898  1560  -4.38  -3.64  -0.23   -2.15    2.93   26.74  1.000  0.000 0 2 0 2  1.000  1.000   3.51    0.00     0.00    0.00   1    8.00     0    0    0   162   0.0  1   1    7    0   0.000    0.000    0.000  1
 55   1    1  1 0 2    54  16    78  256  256     0.00000  11.25958 3.86216e-004   940  1634  -4.38  -3.64  -0.23   -2.09    2.86   25.75  1.000  0.000 0 2 0 2  1.000  1.000   3.51    0.00     0.00    0.00   1    8.00     0    0    0   162   0.0  1   1    7    0   0.000    0.000    0.000  1
 56   1    1  1 0 2    55  16    78  256  256     0.00000  11.25958 3.86216e-004  1156  2010  -4.38  -3.64  -0.23   -2.02    2.78   24.75  1.000  0.000 0 2 0 2  1.000  1.000   3.51    0.00     0.00    0.00   1    8.00     0    0    0   162   0.0  1   1    7    0   0.000    0.000    0.000  1
 57   1    1  1 0 2    56  16    78  256  256     0.00000  11.25958 3.86216e-004  1201  2088  -4.38  -3.64  -0.23   -1.96    2.70   23.76  1.000  0.000 0 2 0 2  1.000  1.000   3.51    0.00     0.00    0.00   1    8.00     0    0    0   162   0.0  1   1    7    0   0.000    0.000    0.000  1
 58   1    1  1 0 2    57  16    78  256  256     0.00000  11.25958 3.86216e-004  1253  2178  -4.38  -3.64  -0.23   -1.90    2.63   22.76  1.000  0.000 0 2 0 2  1.000  1.000   3.51    0.00     0.00    0.00   1    8.00     0    0    0   162   0.0  1   1    7    0   0.000    0.000    0.000  1
 59   1    1  1 0 2    58  16    78  256  256     0.00000  11.25958 3.86216e-004  1266  2201  -4.38  -3.64  -0.23   -1.83    2.55   21.77  1.000  0.000 0 2 0 2  1.000  1.000   3.51    0.00     0.00    0.00   1    8.00     0    0    0   162   0.0  1   1    7    0   0.000    0.000    0.000  1
 60   1    1  1 0 2    59  16    78  256  256     0.00000  11.25958 3.86216e-004  1224  2128  -4.38  -3.64  -0.23   -1.77    2.48   20.77  1.000  0.000 0 2 0 2  1.000  1.000   3.51    0.00     0.00    0.00   1    8.00     0    0    0   162   0.0  1   1    7    0   0.000    0.000    0.000  1
 61   1    1  1 0 2    60  16    78  256  256     0.00000  11.25958 3.86216e-004  1231  2139  -4.38  -3.64  -0.23   -1.71    2.40   19.78  1.000  0.000 0 2 0 2  1.000  1.000   3.51    0.00     0.00    0.00   1    8.00     0    0    0   162   0.0  1   1    7    0   0.000    0.000    0.000  1
 62   1    1  1 0 2    61  16    78  256  256     0.00000  11.25958 3.86216e-004  1250  2172  -4.38  -3.64  -0.23   -1.64    2.32   18.78  1.000  0.000 0 2 0 2  1.000  1.000   3.51    0.00     0.00    0.00   1    8.00     0    0    0   162   0.0  1   1    7    0   0.000    0.000    0.000  1
 63   1    1  1 0 2    62  16    78  256  256     0.00000  11.25958 3.86216e-004  1310  2277  -4.38  -3.64  -0.23   -1.58    2.25   17.79  1.000  0.000 0 2 0 2  1.000  1.000   3.51    0.00     0.00    0.00   1    8.00     0    0    0   162   0.0  1   1    7    0   0.000    0.000    0.000  1
 64   1    1  1 0 2    63  16    78  256  256     0.00000  11.25958 3.86216e-004  1216  2114  -4.38  -3.64  -0.23   -1.52    2.17   16.79  1.000  0.000 0 2 0 2  1.000  1.000   3.51    0.00     0.00    0.00   1    8.00     0    0    0   162   0.0  1   1    7    0   0.000    0.000    0.000  1
 65   1    1  1 0 2    64  16    78  256  256     0.00000  11.25958 3.86216e-004  1188  2065  -4.38  -3.64  -0.23   -1.45    2.09   15.80  1.000  0.000 0 2 0 2  1.000  1.000   3.51    0.00     0.00    0.00   1    8.00     0    0    0   162   0.0  1   1    7    0   0.000    0.000    0.000  1
 66   1    1  1 0 2    65  16    78  256  256     0.00000  11.25958 3.86216e-004  1128  1961  -4.38  -3.64  -0.23   -1.39    2.02   14.80  1.000  0.000 0 2 0 2  1.000  1.000   3.51    0.00     0.00    0.00   1    8.00     0    0    0   162   0.0  1   1    7    0   0.000    0.000    0.000  1
 67   1    1  1 0 2    66  16    78  256  256     0.00000  11.25958 3.86216e-004  1118  1943  -4.38  -3.64  -0.23   -1.33    1.94   13.81  1.000  0.000 0 2 0 2  1.000  1.000   3.51    0.00     0.00    0.00   1    8.00     0    0    0   162   0.0  1   1    7    0   0.000    0.000    0.000  1
 68   1    1  1 0 2    67  16    78  256  256     0.00000  11.25958 3.86216e-004  1081  1880  -4.38  -3.64  -0.23   -1.27    1.86   12.81  1.000  0.000 0 2 0 2  1.000  1.000   3.51    0.00     0.00    0.00   1    8.00     0    0    0   162   0.0  1   1    7    0   0.000    0.000    0.000  1
 69   1    1  1 0 2    68  16    78  256  256     0.00000  11.25958 3.86216e-004  1047  1820  -4.38  -3.64  -0.23   -1.20    1.79   11.82  1.000  0.000 0 2 0 2  1.000  1.000   3.51    0.00     0.00    0.00   1    8.00     0    0    0   162   0.0  1   1    7    0   0.000    0.000    0.000  1
 70   1    1  1 0 2    69  16    78  256  256     0.00000  11.25958 3.86216e-004  1070  1860  -4.38  -3.64  -0.23   -1.14    1.71   10.82  1.000  0.000 0 2 0 2  1.000  1.000   3.51    0.00     0.00    0.00   1    8.00     0    0    0   162   0.0  1   1    7    0   0.000    0.000    0.000  1
 71   1    1  1 0 2    70  16    78  256  256     0.00000  11.25958 3.86216e-004  1107  1924  -4.38  -3.64  -0.23   -1.08    1.63    9.83  1.000  0.000 0 2 0 2  1.000  1.000   3.51    0.00     0.00    0.00   1    8.00     0    0    0   162   0.0  1   1    7    0   0.000    0.000    0.000  1
 72   1    1  1 0 2    71  16    78  256  256     0.00000  11.25958 3.86216e-004  1096  1905  -4.38  -3.64  -0.23   -1.01    1.56    8.83  1.000  0.000 0 2 0 2  1.000  1.000   3.51    0.00     0.00    0.00   1    8.00     0    0    0   162   0.0  1   1    7    0   0.000    0.000    0.000  1
 73   1    1  1 0 2    72  16    78  256  256     0.00000  11.25958 3.86216e-004  1145  1990  -4.38  -3.64  -0.23   -0.95    1.48    7.84  1.000  0.000 0 2 0 2  1.000  1.000   3.51    0.00     0.00    0.00   1    8.00     0    0    0   162   0.0  1   1    7    0   0.000    0.000    0.000  1
 74   1    1  1 0 2    73  16    78  256  256     0.00000  11.25958 3.86216e-004  1154  2005  -4.38  -3.64  -0.23   -0.89    1.41    6.84  1.000  0.000 0 2 0 2  1.000  1.000   3.51    0.00     0.00    0.00   1    8.00     0    0    0   162   0.0  1   1    7    0   0.000    0.000    0.000  1
 75   1    1  1 0 2    74  16    78  256  256     0.00000  11.25958 3.86216e-004  1234  2145  -4.38  -3.64  -0.23   -0.82    1.33    5.85  1.000  0.000 0 2 0 2  1.000  1.000   3.51    0.00     0.00    0.00   1    8.00     0    0    0   162   0.0  1   1    7    0   0.000    0.000    0.000  1
 76   1    1  1 0 2    75  16    78  256  256     0.00000  11.25958 3.86216e-004  1152  2003  -4.38  -3.64  -0.23   -0.76    1.25    4.85  1.000  0.000 0 2 0 2  1.000  1.000   3.51    0.00     0.00    0.00   1    8.00     0    0    0   162   0.0  1   1    7    0   0.000    0.000    0.000  1
 77   1    1  1 0 2    76  16    78  256  256     0.00000  11.25958 3.86216e-004  1031  1791  -4.38  -3.64  -0.23   -0.70    1.18    3.86  1.000  0.000 0 2 0 2  1.000  1.000   3.51    0.00     0.00    0.00   1    8.00     0    0    0   162   0.0  1   1    7    0   0.000    0.000    0.000  1
 78   1    1  1 0 2    77  16    78  256  256     0.00000  11.25958 3.86216e-004  1020  1772  -4.38  -3.64  -0.23   -0.63    1.10    2.86  1.000  0.000 0 2 0 2  1.000  1.000   3.51    0.00     0.00    0.00   1    8.00     0    0    0   162   0.0  1   1    7    0   0.000    0.000    0.000  1
 79   1    1  1 0 2    78  16    78  256  256     0.00000  11.25958 3.86216e-004  1053  1830  -4.38  -3.64  -0.23   -0.57    1.02    1.87  1.000  0.000 0 2 0 2  1.000  1.000   3.51    0.00     0.00    0.00   1    8.00     0    0    0   162   0.0  1   1    7    0   0.000    0.000    0.000  1
 80   1    1  1 0 2    79  16    78  256  256     0.00000  11.25958 3.86216e-004  1035  1799  -4.38  -3.64  -0.23   -0.51    0.95    0.87  1.000  0.000 0 2 0 2  1.000  1.000   3.51    0.00     0.00    0.00   1    8.00     0    0    0   162   0.0  1   1    7    0   0.000    0.000    0.000  1
 81   1    1  1 0 2    80  16    78  256  256     0.00000  11.25958 3.86216e-004  1040  1807  -4.38  -3.64  -0.23   -0.45    0.87   -0.12  1.000  0.000 0 2 0 2  1.000  1.000   3.51    0.00     0.00    0.00   1    8.00     0    0    0   162   0.0  1   1    7    0   0.000    0.000    0.000  1
 82   1    1  1 0 2    81  16    78  256  256     0.00000  11.25958 3.86216e-004  1047  1820  -4.38  -3.64  -0.23   -0.38    0.79   -1.12  1.000  0.000 0 2 0 2  1.000  1.000   3.51    0.00     0.00    0.00   1    8.00     0    0    0   162   0.0  1   1    7    0   0.000    0.000    0.000  1
 83   1    1  1 0 2    82  16    78  256  256     0.00000  11.25958 3.86216e-004  1057  1838  -4.38  -3.64  -0.23   -0.32    0.72   -2.11  1.000  0.000 0 2 0 2  1.000  1.000   3.51    0.00     0.00    0.00   1    8.00     0    0    0   162   0.0  1   1    7    0   0.000    0.000    0.000  1
 84   1    1  1 0 2    83  16    78  256  256     0.00000  11.25958 3.86216e-004  1076  1870  -4.38  -3.64  -0.23   -0.26    0.64   -3.11  1.000  0.000 0 2 0 2  1.000  1.000   3.51    0.00     0.00    0.00   1    8.00     0    0    0   162   0.0  1   1    7    0   0.000    0.000    0.000  1
