# === DATA DESCRIPTION FILE ======================================================
#
# CAUTION - Investigational device.
# Limited by Federal Law to investigational use.
#
# Dataset name: E:\\Export\n7114_5_1
#
# CLINICAL TRYOUT             Research image export tool     V4.2
#
# === GENERAL INFORMATION ========================================================
#
.    Patient name                       :   n7114
.    Examination name                   :   Nesda_3
.    Protocol name                      :   WIP EPI_rest_newprot SENSE
.    Examination date/time              :   2015.07.15 / 09:29:24
.    Series Type                        :   Image   MRSERIES
.    Acquisition nr                     :   5
.    Reconstruction nr                  :   1
.    Scan Duration [sec]                :   722
.    Max. number of cardiac phases      :   1
.    Max. number of echoes              :   1
.    Max. number of slices/locations    :   37
.    Max. number of dynamics            :   310
.    Max. number of mixes               :   1
.    Patient position                   :   Head First Supine
.    Preparation direction              :   Anterior-Posterior
.    Technique                          :   FEEPI
.    Scan resolution  (x, y)            :   96  96
.    Scan mode                          :   MS
.    Repetition time [ms]               :   2300.000  
.    FOV (ap,fh,rl) [mm]                :   220.000  121.800  220.000
.    Water Fat shift [pixels]           :   13.584
.    Angulation midslice(ap,fh,rl)[degr]:   -1.137  -3.899  -9.963
.    Off Centre midslice(ap,fh,rl) [mm] :   -6.008  25.588  2.927
.    Flow compensation <0=no 1=yes> ?   :   0
.    Presaturation     <0=no 1=yes> ?   :   0
.    Phase encoding velocity [cm/sec]   :   0.000000  0.000000  0.000000
.    MTC               <0=no 1=yes> ?   :   0
.    SPIR              <0=no 1=yes> ?   :   1
.    EPI factor        <0,1=no EPI>     :   43
.    Dynamic scan      <0=no 1=yes> ?   :   1
.    Diffusion         <0=no 1=yes> ?   :   0
.    Diffusion echo time [ms]           :   0.0000
.    Max. number of diffusion values    :   1
.    Max. number of gradient orients    :   1
.    Number of label types   <0=no ASL> :   0
#
# === PIXEL VALUES =============================================================
#  PV = pixel value in REC file, FP = floating point value, DV = displayed value on console
#  RS = rescale slope,           RI = rescale intercept,    SS = scale slope
#  DV = PV * RS + RI             FP = DV / (RS * SS)
#
# === IMAGE INFORMATION DEFINITION =============================================
#  The rest of this file contains ONE line per image, this line contains the following information:
#
#  slice number                             (integer)
#  echo number                              (integer)
#  dynamic scan number                      (integer)
#  cardiac phase number                     (integer)
#  image_type_mr                            (integer)
#  scanning sequence                        (integer)
#  index in REC file (in images)            (integer)
#  image pixel size (in bits)               (integer)
#  scan percentage                          (integer)
#  recon resolution (x y)                   (2*integer)
#  rescale intercept                        (float)
#  rescale slope                            (float)
#  scale slope                              (float)
#  window center                            (integer)
#  window width                             (integer)
#  image angulation (ap,fh,rl in degrees )  (3*float)
#  image offcentre (ap,fh,rl in mm )        (3*float)
#  slice thickness (in mm )                 (float)
#  slice gap (in mm )                       (float)
#  image_display_orientation                (integer)
#  slice orientation ( TRA/SAG/COR )        (integer)
#  fmri_status_indication                   (integer)
#  image_type_ed_es  (end diast/end syst)   (integer)
#  pixel spacing (x,y) (in mm)              (2*float)
#  echo_time                                (float)
#  dyn_scan_begin_time                      (float)
#  trigger_time                             (float)
#  diffusion_b_factor                       (float)
#  number of averages                       (integer)
#  image_flip_angle (in degrees)            (float)
#  cardiac frequency   (bpm)                (integer)
#  minimum RR-interval (in ms)              (integer)
#  maximum RR-interval (in ms)              (integer)
#  TURBO factor  <0=no turbo>               (integer)
#  Inversion delay (in ms)                  (float)
#  diffusion b value number    (imagekey!)  (integer)
#  gradient orientation number (imagekey!)  (integer)
#  contrast type                            (string)
#  diffusion anisotropy type                (string)
#  diffusion (ap, fh, rl)                   (3*float)
#  label type (ASL)            (imagekey!)  (integer)
#
# === IMAGE INFORMATION ==========================================================
#  sl ec  dyn ph ty    idx pix scan% rec size                (re)scale              window        angulation              offcentre        thick   gap   info      spacing     echo     dtime   ttime    diff  avg  flip    freq   RR-int  turbo delay b grad cont anis         diffusion       L.ty

  1   1    1  1 0 2     0  16   100   96   96     0.00000  43.94383 1.04185e-003 14271 24808  -1.14  -3.90  -9.96  -16.28  -32.90    4.11  3.000  0.300 0 1 0 2  2.292  2.292  30.00    0.00     0.00    0.00   1   77.20     0    0    0    43   0.0  1   1    8    0   0.000    0.000    0.000  1
  2   1    1  1 0 2     1  16   100   96   96     0.00000  43.94383 1.04185e-003 10266 17845  -1.14  -3.90  -9.96  -15.71  -29.66    4.04  3.000  0.300 0 1 0 2  2.292  2.292  30.00    0.00     0.00    0.00   1   77.20     0    0    0    43   0.0  1   1    8    0   0.000    0.000    0.000  1
  3   1    1  1 0 2     2  16   100   96   96     0.00000  43.94383 1.04185e-003 12062 20967  -1.14  -3.90  -9.96  -15.14  -26.41    3.97  3.000  0.300 0 1 0 2  2.292  2.292  30.00    0.00     0.00    0.00   1   77.20     0    0    0    43   0.0  1   1    8    0   0.000    0.000    0.000  1
  4   1    1  1 0 2     3  16   100   96   96     0.00000  43.94383 1.04185e-003 12160 21137  -1.14  -3.90  -9.96  -14.57  -23.16    3.91  3.000  0.300 0 1 0 2  2.292  2.292  30.00    0.00     0.00    0.00   1   77.20     0    0    0    43   0.0  1   1    8    0   0.000    0.000    0.000  1
  5   1    1  1 0 2     4  16   100   96   96     0.00000  43.94383 1.04185e-003 11141 19367  -1.14  -3.90  -9.96  -14.00  -19.91    3.84  3.000  0.300 0 1 0 2  2.292  2.292  30.00    0.00     0.00    0.00   1   77.20     0    0    0    43   0.0  1   1    8    0   0.000    0.000    0.000  1
  6   1    1  1 0 2     5  16   100   96   96     0.00000  43.94383 1.04185e-003 11615 20190  -1.14  -3.90  -9.96  -13.43  -16.66    3.78  3.000  0.300 0 1 0 2  2.292  2.292  30.00    0.00     0.00    0.00   1   77.20     0    0    0    43   0.0  1   1    8    0   0.000    0.000    0.000  1
  7   1    1  1 0 2     6  16   100   96   96     0.00000  43.94383 1.04185e-003 11211 19488  -1.14  -3.90  -9.96  -12.86  -13.41    3.71  3.000  0.300 0 1 0 2  2.292  2.292  30.00    0.00     0.00    0.00   1   77.20     0    0    0    43   0.0  1   1    8    0   0.000    0.000    0.000  1
  8   1    1  1 0 2     7  16   100   96   96     0.00000  43.94383 1.04185e-003 11158 19396  -1.14  -3.90  -9.96  -12.29  -10.16    3.65  3.000  0.300 0 1 0 2  2.292  2.292  30.00    0.00     0.00    0.00   1   77.20     0    0    0    43   0.0  1   1    8    0   0.000    0.000    0.000  1
  9   1    1  1 0 2     8  16   100   96   96     0.00000  43.94383 1.04185e-003 11919 20720  -1.14  -3.90  -9.96  -11.72   -6.91    3.58  3.000  0.300 0 1 0 2  2.292  2.292  30.00    0.00     0.00    0.00   1   77.20     0    0    0    43   0.0  1   1    8    0   0.000    0.000    0.000  1
 10   1    1  1 0 2     9  16   100   96   96     0.00000  43.94383 1.04185e-003 13161 22878  -1.14  -3.90  -9.96  -11.15   -3.66    3.52  3.000  0.300 0 1 0 2  2.292  2.292  30.00    0.00     0.00    0.00   1   77.20     0    0    0    43   0.0  1   1    8    0   0.000    0.000    0.000  1
 11   1    1  1 0 2    10  16   100   96   96     0.00000  43.94383 1.04185e-003 14130 24562  -1.14  -3.90  -9.96  -10.57   -0.41    3.45  3.000  0.300 0 1 0 2  2.292  2.292  30.00    0.00     0.00    0.00   1   77.20     0    0    0    43   0.0  1   1    8    0   0.000    0.000    0.000  1
 12   1    1  1 0 2    11  16   100   96   96     0.00000  43.94383 1.04185e-003 13298 23116  -1.14  -3.90  -9.96  -10.00    2.84    3.38  3.000  0.300 0 1 0 2  2.292  2.292  30.00    0.00     0.00    0.00   1   77.20     0    0    0    43   0.0  1   1    8    0   0.000    0.000    0.000  1
 13   1    1  1 0 2    12  16   100   96   96     0.00000  43.94383 1.04185e-003 12740 22146  -1.14  -3.90  -9.96   -9.43    6.09    3.32  3.000  0.300 0 1 0 2  2.292  2.292  30.00    0.00     0.00    0.00   1   77.20     0    0    0    43   0.0  1   1    8    0   0.000    0.000    0.000  1
 14   1    1  1 0 2    13  16   100   96   96     0.00000  43.94383 1.04185e-003 13054 22693  -1.14  -3.90  -9.96   -8.86    9.34    3.25  3.000  0.300 0 1 0 2  2.292  2.292  30.00    0.00     0.00    0.00   1   77.20     0    0    0    43   0.0  1   1    8    0   0.000    0.000    0.000  1
 15   1    1  1 0 2    14  16   100   96   96     0.00000  43.94383 1.04185e-003 11602 20168  -1.14  -3.90  -9.96   -8.29   12.59    3.19  3.000  0.300 0 1 0 2  2.292  2.292  30.00    0.00     0.00    0.00   1   77.20     0    0    0    43   0.0  1   1    8    0   0.000    0.000    0.000  1
 16   1    1  1 0 2    15  16   100   96   96     0.00000  43.94383 1.04185e-003 12067 20975  -1.14  -3.90  -9.96   -7.72   15.84    3.12  3.000  0.300 0 1 0 2  2.292  2.292  30.00    0.00     0.00    0.00   1   77.20     0    0    0    43   0.0  1   1    8    0   0.000    0.000    0.000  1
 17   1    1  1 0 2    16  16   100   96   96     0.00000  43.94383 1.04185e-003 13276 23079  -1.14  -3.90  -9.96   -7.15   19.09    3.06  3.000  0.300 0 1 0 2  2.292  2.292  30.00    0.00     0.00    0.00   1   77.20     0    0    0    43   0.0  1   1    8    0   0.000    0.000    0.000  1
 18   1    1  1 0 2    17  16   100   96   96     0.00000  43.94383 1.04185e-003 13860 24092  -1.14  -3.90  -9.96   -6.58   22.34    2.99  3.000  0.300 0 1 0 2  2.292  2.292  30.00    0.00     0.00    0.00   1   77.20     0    0    0    43   0.0  1   1    8    0   0.000    0.000    0.000  1
 19   1    1  1 0 2    18  16   100   96   96     0.00000  43.94383 1.04185e-003 13440 23363  -1.14  -3.90  -9.96   -6.01   25.59    2.93  3.000  0.300 0 1 0 2  2.292  2.292  30.00    0.00     0.00    0.00   1   77.20     0    0    0    43   0.0  1   1    8    0   0.000    0.000    0.000  1
 20   1    1  1 0 2    19  16   100   96   96     0.00000  43.94383 1.04185e-003 13363 23229  -1.14  -3.90  -9.96   -5.44   28.84    2.86  3.000  0.300 0 1 0 2  2.292  2.292  30.00    0.00     0.00    0.00   1   77.20     0    0    0    43   0.0  1   1    8    0   0.000    0.000    0.000  1
 21   1    1  1 0 2    20  16   100   96   96     0.00000  43.94383 1.04185e-003 13058 22699  -1.14  -3.90  -9.96   -4.87   32.09    2.80  3.000  0.300 0 1 0 2  2.292  2.292  30.00    0.00     0.00    0.00   1   77.20     0    0    0    43   0.0  1   1    8    0   0.000    0.000    0.000  1
 22   1    1  1 0 2    21  16   100   96   96     0.00000  43.94383 1.04185e-003 13875 24120  -1.14  -3.90  -9.96   -4.30   35.34    2.73  3.000  0.300 0 1 0 2  2.292  2.292  30.00    0.00     0.00    0.00   1   77.20     0    0    0    43   0.0  1   1    8    0   0.000    0.000    0.000  1
 23   1    1  1 0 2    22  16   100   96   96     0.00000  43.94383 1.04185e-003 13590 23624  -1.14  -3.90  -9.96   -3.73   38.59    2.66  3.000  0.300 0 1 0 2  2.292  2.292  30.00    0.00     0.00    0.00   1   77.20     0    0    0    43   0.0  1   1    8    0   0.000    0.000    0.000  1
 24   1    1  1 0 2    23  16   100   96   96     0.00000  43.94383 1.04185e-003 13523 23507  -1.14  -3.90  -9.96   -3.15   41.84    2.60  3.000  0.300 0 1 0 2  2.292  2.292  30.00    0.00     0.00    0.00   1   77.20     0    0    0    43   0.0  1   1    8    0   0.000    0.000    0.000  1
 25   1    1  1 0 2    24  16   100   96   96     0.00000  43.94383 1.04185e-003 12507 21741  -1.14  -3.90  -9.96   -2.58   45.09    2.53  3.000  0.300 0 1 0 2  2.292  2.292  30.00    0.00     0.00    0.00   1   77.20     0    0    0    43   0.0  1   1    8    0   0.000    0.000    0.000  1
 26   1    1  1 0 2    25  16   100   96   96     0.00000  43.94383 1.04185e-003 12546 21809  -1.14  -3.90  -9.96   -2.01   48.34    2.47  3.000  0.300 0 1 0 2  2.292  2.292  30.00    0.00     0.00    0.00   1   77.20     0    0    0    43   0.0  1   1    8    0   0.000    0.000    0.000  1
 27   1    1  1 0 2    26  16   100   96   96     0.00000  43.94383 1.04185e-003 12456 21652  -1.14  -3.90  -9.96   -1.44   51.58    2.40  3.000  0.300 0 1 0 2  2.292  2.292  30.00    0.00     0.00    0.00   1   77.20     0    0    0    43   0.0  1   1    8    0   0.000    0.000    0.000  1
 28   1    1  1 0 2    27  16   100   96   96     0.00000  43.94383 1.04185e-003 13154 22866  -1.14  -3.90  -9.96   -0.87   54.83    2.34  3.000  0.300 0 1 0 2  2.292  2.292  30.00    0.00     0.00    0.00   1   77.20     0    0    0    43   0.0  1   1    8    0   0.000    0.000    0.000  1
 29   1    1  1 0 2    28  16   100   96   96     0.00000  43.94383 1.04185e-003 13542 23540  -1.14  -3.90  -9.96   -0.30   58.08    2.27  3.000  0.300 0 1 0 2  2.292  2.292  30.00    0.00     0.00    0.00   1   77.20     0    0    0    43   0.0  1   1    8    0   0.000    0.000    0.000  1
 30   1    1  1 0 2    29  16   100   96   96     0.00000  43.94383 1.04185e-003 12733 22134  -1.14  -3.90  -9.96    0.27   61.33    2.21  3.000  0.300 0 1 0 2  2.292  2.292  30.00    0.00     0.00    0.00   1   77.20     0    0    0    43   0.0  1   1    8    0   0.000    0.000    0.000  1
 31   1    1  1 0 2    30  16   100   96   96     0.00000  43.94383 1.04185e-003 12911 22443  -1.14  -3.90  -9.96    0.84   64.58    2.14  3.000  0.300 0 1 0 2  2.292  2.292  30.00    0.00     0.00    0.00   1   77.20     0    0    0    43   0.0  1   1    8    0   0.000    0.000    0.000  1
 32   1    1  1 0 2    31  16   100   96   96     0.00000  43.94383 1.04185e-003 12905 22433  -1.14  -3.90  -9.96    1.41   67.83    2.08  3.000  0.300 0 1 0 2  2.292  2.292  30.00    0.00     0.00    0.00   1   77.20     0    0    0    43   0.0  1   1    8    0   0.000    0.000    0.000  1
 33   1    1  1 0 2    32  16   100   96   96     0.00000  43.94383 1.04185e-003 13043 22672  -1.14  -3.90  -9.96    1.98   71.08    2.01  3.000  0.300 0 1 0 2  2.292  2.292  30.00    0.00     0.00    0.00   1   77.20     0    0    0    43   0.0  1   1    8    0   0.000    0.000    0.000  1
 34   1    1  1 0 2    33  16   100   96   96     0.00000  43.94383 1.04185e-003 13043 22672  -1.14  -3.90  -9.96    2.55   74.33    1.94  3.000  0.300 0 1 0 2  2.292  2.292  30.00    0.00     0.00    0.00   1   77.20     0    0    0    43   0.0  1   1    8    0   0.000    0.000    0.000  1
 35   1    1  1 0 2    34  16   100   96   96     0.00000  43.94383 1.04185e-003 13370 23241  -1.14  -3.90  -9.96    3.12   77.58    1.88  3.000  0.300 0 1 0 2  2.292  2.292  30.00    0.00     0.00    0.00   1   77.20     0    0    0    43   0.0  1   1    8    0   0.000    0.000    0.000  1
 36   1    1  1 0 2    35  16   100   96   96     0.00000  43.94383 1.04185e-003  8238 14321  -1.14  -3.90  -9.96    3.70   80.83    1.81  3.000  0.300 0 1 0 2  2.292  2.292  30.00    0.00     0.00    0.00   1   77.20     0    0    0    43   0.0  1   1    8    0   0.000    0.000    0.000  1
 37   1    1  1 0 2    36  16   100   96   96     0.00000  43.94383 1.04185e-003  1070  1860  -1.14  -3.90  -9.96    4.27   84.08    1.75  3.000  0.300 0 1 0 2  2.292  2.292  30.00    0.00     0.00    0.00   1   77.20     0    0    0    43   0.0  1   1    8    0   0.000    0.000    0.000  1
  1   1    2  1 0 2    37  16   100   96   96     0.00000  43.94383 1.04185e-003 15708 27306  -1.14  -3.90  -9.96  -16.28  -32.90    4.11  3.000  0.300 0 1 0 2  2.292  2.292  30.00    2.30     0.00    0.00   1   77.20     0    0    0    43   0.0  1   1    8    0   0.000    0.000    0.000  1
  2   1    2  1 0 2    38  16   100   96   96     0.00000  43.94383 1.04185e-003 10923 18987  -1.14  -3.90  -9.96  -15.71  -29.66    4.04  3.000  0.300 0 1 0 2  2.292  2.292  30.00    2.30     0.00    0.00   1   77.20     0    0    0    43   0.0  1   1    8    0   0.000    0.000    0.000  1
  3   1    2  1 0 2    39  16   100   96   96     0.00000  43.94383 1.04185e-003 11617 20193  -1.14  -3.90  -9.96  -15.14  -26.41    3.97  3.000  0.300 0 1 0 2  2.292  2.292  30.00    2.30     0.00    0.00   1   77.20     0    0    0    43   0.0  1   1    8    0   0.000    0.000    0.000  1
  4   1    2  1 0 2    40  16   100   96   96     0.00000  43.94383 1.04185e-003 12633 21961  -1.14  -3.90  -9.96  -14.57  -23.16    3.91  3.000  0.300 0 1 0 2  2.292  2.292  30.00    2.30     0.00    0.00   1   77.20     0    0    0    43   0.0  1   1    8    0   0.000    0.000    0.000  1
  5   1    2  1 0 2    41  16   100   96   96     0.00000  43.94383 1.04185e-003 11802 20515  -1.14  -3.90  -9.96  -14.00  -19.91    3.84  3.000  0.300 0 1 0 2  2.292  2.292  30.00    2.30     0.00    0.00   1   77.20     0    0    0    43   0.0  1   1    8    0   0.000    0.000    0.000  1
  6   1    2  1 0 2    42  16   100   96   96     0.00000  43.94383 1.04185e-003 12565 21842  -1.14  -3.90  -9.96  -13.43  -16.66    3.78  3.000  0.300 0 1 0 2  2.292  2.292  30.00    2.30     0.00    0.00   1   77.20     0    0    0    43   0.0  1   1    8    0   0.000    0.000    0.000  1
  7   1    2  1 0 2    43  16   100   96   96     0.00000  43.94383 1.04185e-003 11388 19796  -1.14  -3.90  -9.96  -12.86  -13.41    3.71  3.000  0.300 0 1 0 2  2.292  2.292  30.00    2.30     0.00    0.00   1   77.20     0    0    0    43   0.0  1   1    8    0   0.000    0.000    0.000  1
  8   1    2  1 0 2    44  16   100   96   96     0.00000  43.94383 1.04185e-003 10735 18660  -1.14  -3.90  -9.96  -12.29  -10.16    3.65  3.000  0.300 0 1 0 2  2.292  2.292  30.00    2.30     0.00    0.00   1   77.20     0    0    0    43   0.0  1   1    8    0   0.000    0.000    0.000  1
  9   1    2  1 0 2    45  16   100   96   96     0.00000  43.94383 1.04185e-003 11511 20010  -1.14  -3.90  -9.96  -11.72   -6.91    3.58  3.000  0.300 0 1 0 2  2.292  2.292  30.00    2.30     0.00    0.00   1   77.20     0    0    0    43   0.0  1   1    8    0   0.000    0.000    0.000  1
 10   1    2  1 0 2    46  16   100   96   96     0.00000  43.94383 1.04185e-003 12810 22268  -1.14  -3.90  -9.96  -11.15   -3.66    3.52  3.000  0.300 0 1 0 2  2.292  2.292  30.00    2.30     0.00    0.00   1   77.20     0    0    0    43   0.0  1   1    8    0   0.000    0.000    0.000  1
 11   1    2  1 0 2    47  16   100   96   96     0.00000  43.94383 1.04185e-003 14500 25206  -1.14  -3.90  -9.96  -10.57   -0.41    3.45  3.000  0.300 0 1 0 2  2.292  2.292  30.00    2.30     0.00    0.00   1   77.20     0    0    0    43   0.0  1   1    8    0   0.000    0.000    0.000  1
 12   1    2  1 0 2    48  16   100   96   96     0.00000  43.94383 1.04185e-003 13326 23164  -1.14  -3.90  -9.96  -10.00    2.84    3.38  3.000  0.300 0 1 0 2  2.292  2.292  30.00    2.30     0.00    0.00   1   77.20     0    0    0    43   0.0  1   1    8    0   0.000    0.000    0.000  1
 13   1    2  1 0 2    49  16   100   96   96     0.00000  43.94383 1.04185e-003 12985 22573  -1.14  -3.90  -9.96   -9.43    6.09    3.32  3.000  0.300 0 1 0 2  2.292  2.292  30.00    2.30     0.00    0.00   1   77.20     0    0    0    43   0.0  1   1    8    0   0.000    0.000    0.000  1
 14   1    2  1 0 2    50  16   100   96   96     0.00000  43.94383 1.04185e-003 13063 22707  -1.14  -3.90  -9.96   -8.86    9.34    3.25  3.000  0.300 0 1 0 2  2.292  2.292  30.00    2.30     0.00    0.00   1   77.20     0    0    0    43   0.0  1   1    8    0   0.000    0.000    0.000  1
 15   1    2  1 0 2    51  16   100   96   96     0.00000  43.94383 1.04185e-003 11576 20124  -1.14  -3.90  -9.96   -8.29   12.59    3.19  3.000  0.300 0 1 0 2  2.292  2.292  30.00    2.30     0.00    0.00   1   77.20     0    0    0    43   0.0  1   1    8    0   0.000    0.000    0.000  1
 16   1    2  1 0 2    52  16   100   96   96     0.00000  43.94383 1.04185e-003 11948 20770  -1.14  -3.90  -9.96   -7.72   15.84    3.12  3.000  0.300 0 1 0 2  2.292  2.292  30.00    2.30     0.00    0.00   1   77.20     0    0    0    43   0.0  1   1    8    0   0.000    0.000    0.000  1
 17   1    2  1 0 2    53  16   100   96   96     0.00000  43.94383 1.04185e-003 13221 22982  -1.14  -3.90  -9.96   -7.15   19.09    3.06  3.000  0.300 0 1 0 2  2.292  2.292  30.00    2.30     0.00    0.00   1   77.20     0    0    0    43   0.0  1   1    8    0   0.000    0.000    0.000  1
 18   1    2  1 0 2    54  16   100   96   96     0.00000  43.94383 1.04185e-003 13717 23845  -1.14  -3.90  -9.96   -6.58   22.34    2.99  3.000  0.300 0 1 0 2  2.292  2.292  30.00    2.30     0.00    0.00   1   77.20     0    0    0    43   0.0  1   1    8    0   0.000    0.000    0.000  1
 19   1    2  1 0 2    55  16   100   96   96     0.00000  43.94383 1.04185e-003 13482 23436  -1.14  -3.90  -9.96   -6.01   25.59    2.93  3.000  0.300 0 1 0 2  2.292  2.292  30.00    2.30     0.00    0.00   1   77.20     0    0    0    43   0.0  1   1    8    0   0.000    0.000    0.000  1
 20   1    2  1 0 2    56  16   100   96   96     0.00000  43.94383 1.04185e-003 13575 23598  -1.14  -3.90  -9.96   -5.44   28.84    2.86  3.000  0.300 0 1 0 2  2.292  2.292  30.00    2.30     0.00    0.00   1   77.20     0    0    0    43   0.0  1   1    8    0   0.000    0.000    0.000  1
 21   1    2  1 0 2    57  16   100   96   96     0.00000  43.94383 1.04185e-003 13114 22796  -1.14  -3.90  -9.96   -4.87   32.09    2.80  3.000  0.300 0 1 0 2  2.292  2.292  30.00    2.30     0.00    0.00   1   77.20     0    0    0    43   0.0  1   1    8    0   0.000    0.000    0.000  1
 22   1    2  1 0 2    58  16   100   96   96     0.00000  43.94383 1.04185e-003 13813 24012  -1.14  -3.90  -9.96   -4.30   35.34    2.73  3.000  0.300 0 1 0 2  2.292  2.292  30.00    2.30     0.00    0.00   1   77.20     0    0    0    43   0.0  1   1    8    0   0.000    0.000    0.000  1
 23   1    2  1 0 2    59  16   100   96   96     0.00000  43.94383 1.04185e-003 13533 23524  -1.14  -3.90  -9.96   -3.73   38.59    2.66  3.000  0.300 0 1 0 2  2.292  2.292  30.00    2.30     0.00    0.00   1   77.20     0    0    0    43   0.0  1   1    8    0   0.000    0.000    0.000  1
 24   1    2  1 0 2    60  16   100   96   96     0.00000  43.94383 1.04185e-003 13447 23375  -1.14  -3.90  -9.96   -3.15   41.84    2.60  3.000  0.300 0 1 0 2  2.292  2.292  30.00    2.30     0.00    0.00   1   77.20     0    0    0    43   0.0  1   1    8    0   0.000    0.000    0.000  1
 25   1    2  1 0 2    61  16   100   96   96     0.00000  43.94383 1.04185e-003 12429 21605  -1.14  -3.90  -9.96   -2.58   45.09    2.53  3.000  0.300 0 1 0 2  2.292  2.292  30.00    2.30     0.00    0.00   1   77.20     0    0    0    43   0.0  1   1    8    0   0.000    0.000    0.000  1
 26   1    2  1 0 2    62  16   100   96   96     0.00000  43.94383 1.04185e-003 12350 21468  -1.14  -3.90  -9.96   -2.01   48.34    2.47  3.000  0.300 0 1 0 2  2.292  2.292  30.00    2.30     0.00    0.00   1   77.20     0    0    0    43   0.0  1   1    8    0   0.000    0.000    0.000  1
 27   1    2  1 0 2    63  16   100   96   96     0.00000  43.94383 1.04185e-003 12437 21619  -1.14  -3.90  -9.96   -1.44   51.58    2.40  3.000  0.300 0 1 0 2  2.292  2.292  30.00    2.30     0.00    0.00   1   77.20     0    0    0    43   0.0  1   1    8    0   0.000    0.000    0.000  1
 28   1    2  1 0 2    64  16   100   96   96     0.00000  43.94383 1.04185e-003 13190 22928  -1.14  -3.90  -9.96   -0.87   54.83    2.34  3.000  0.300 0 1 0 2  2.292  2.292  30.00    2.30     0.00    0.00   1   77.20     0    0    0    43   0.0  1   1    8    0   0.000    0.000    0.000  1
 29   1    2  1 0 2    65  16   100   96   96     0.00000  43.94383 1.04185e-003 13559 23570  -1.14  -3.90  -9.96   -0.30   58.08    2.27  3.000  0.300 0 1 0 2  2.292  2.292  30.00    2.30     0.00    0.00   1   77.20     0    0    0    43   0.0  1   1    8    0   0.000    0.000    0.000  1
 30   1    2  1 0 2    66  16   100   96   96     0.00000  43.94383 1.04185e-003 12699 22076  -1.14  -3.90  -9.96    0.27   61.33    2.21  3.000  0.300 0 1 0 2  2.292  2.292  30.00    2.30     0.00    0.00   1   77.20     0    0    0    43   0.0  1   1    8    0   0.000    0.000    0.000  1
 31   1    2  1 0 2    67  16   100   96   96     0.00000  43.94383 1.04185e-003 12931 22479  -1.14  -3.90  -9.96    0.84   64.58    2.14  3.000  0.300 0 1 0 2  2.292  2.292  30.00    2.30     0.00    0.00   1   77.20     0    0    0    43   0.0  1   1    8    0   0.000    0.000    0.000  1
 32   1    2  1 0 2    68  16   100   96   96     0.00000  43.94383 1.04185e-003 12742 22150  -1.14  -3.90  -9.96    1.41   67.83    2.08  3.000  0.300 0 1 0 2  2.292  2.292  30.00    2.30     0.00    0.00   1   77.20     0    0    0    43   0.0  1   1    8    0   0.000    0.000    0.000  1
 33   1    2  1 0 2    69  16   100   96   96     0.00000  43.94383 1.04185e-003 13055 22693  -1.14  -3.90  -9.96    1.98   71.08    2.01  3.000  0.300 0 1 0 2  2.292  2.292  30.00    2.30     0.00    0.00   1   77.20     0    0    0    43   0.0  1   1    8    0   0.000    0.000    0.000  1
 34   1    2  1 0 2    70  16   100   96   96     0.00000  43.94383 1.04185e-003 13001 22600  -1.14  -3.90  -9.96    2.55   74.33    1.94  3.000  0.300 0 1 0 2  2.292  2.292  30.00    2.30     0.00    0.00   1   77.20     0    0    0    43   0.0  1   1    8    0   0.000    0.000    0.000  1
 35   1    2  1 0 2    71  16   100   96   96     0.00000  43.94383 1.04185e-003 13386 23269  -1.14  -3.90  -9.96    3.12   77.58    1.88  3.000  0.300 0 1 0 2  2.292  2.292  30.00    2.30     0.00    0.00   1   77.20     0    0    0    43   0.0  1   1    8    0   0.000    0.000    0.000  1
 36   1    2  1 0 2    72  16   100   96   96     0.00000  43.94383 1.04185e-003  8226 14299  -1.14  -3.90  -9.96    3.70   80.83    1.81  3.000  0.300 0 1 0 2  2.292  2.292  30.00    2.30     0.00    0.00   1   77.20     0    0    0    43   0.0  1   1    8    0   0.000    0.000    0.000  1
 37   1    2  1 0 2    73  16   100   96   96     0.00000  43.94383 1.04185e-003  1068  1856  -1.14  -3.90  -9.96    4.27   84.08    1.75  3.000  0.300 0 1 0 2  2.292  2.292  30.00    2.30     0.00    0.00   1   77.20     0    0    0    43   0.0  1   1    8    0   0.000    0.000    0.000  1
  1   1    3  1 0 2    74  16   100   96   96     0.00000  43.94383 1.04185e-003 13810 24006  -1.14  -3.90  -9.96  -16.28  -32.90    4.11  3.000  0.300 0 1 0 2  2.292  2.292  30.00    4.60     0.00    0.00   1   77.20     0    0    0    43   0.0  1   1    8    0   0.000    0.000    0.000  1
  2   1    3  1 0 2    75  16   100   96   96     0.00000  43.94383 1.04185e-003 10032 17439  -1.14  -3.90  -9.96  -15.71  -29.66    4.04  3.000  0.300 0 1 0 2  2.292  2.292  30.00    4.60     0.00    0.00   1   77.20     0    0    0    43   0.0  1   1    8    0   0.000    0.000    0.000  1
  3   1    3  1 0 2    76  16   100   96   96     0.00000  43.94383 1.04185e-003 11879 20649  -1.14  -3.90  -9.96  -15.14  -26.41    3.97  3.000  0.300 0 1 0 2  2.292  2.292  30.00    4.60     0.00    0.00   1   77.20     0    0    0    43   0.0  1   1    8    0   0.000    0.000    0.000  1
  4   1    3  1 0 2    77  16   100   96   96     0.00000  43.94383 1.04185e-003 12192 21193  -1.14  -3.90  -9.96  -14.57  -23.16    3.91  3.000  0.300 0 1 0 2  2.292  2.292  30.00    4.60     0.00    0.00   1   77.20     0    0    0    43   0.0  1   1    8    0   0.000    0.000    0.000  1
  5   1    3  1 0 2    78  16   100   96   96     0.00000  43.94383 1.04185e-003 11375 19773  -1.14  -3.90  -9.96  -14.00  -19.91    3.84  3.000  0.300 0 1 0 2  2.292  2.292  30.00    4.60     0.00    0.00   1   77.20     0    0    0    43   0.0  1   1    8    0   0.000    0.000    0.000  1
  6   1    3  1 0 2    79  16   100   96   96     0.00000  43.94383 1.04185e-003 11628 20213  -1.14  -3.90  -9.96  -13.43  -16.66    3.78  3.000  0.300 0 1 0 2  2.292  2.292  30.00    4.60     0.00    0.00   1   77.20     0    0    0    43   0.0  1   1    8    0   0.000    0.000    0.000  1
  7   1    3  1 0 2    80  16   100   96   96     0.00000  43.94383 1.04185e-003 11372 19768  -1.14  -3.90  -9.96  -12.86  -13.41    3.71  3.000  0.300 0 1 0 2  2.292  2.292  30.00    4.60     0.00    0.00   1   77.20     0    0    0    43   0.0  1   1    8    0   0.000    0.000    0.000  1
  8   1    3  1 0 2    81  16   100   96   96     0.00000  43.94383 1.04185e-003 10939 19016  -1.14  -3.90  -9.96  -12.29  -10.16    3.65  3.000  0.300 0 1 0 2  2.292  2.292  30.00    4.60     0.00    0.00   1   77.20     0    0    0    43   0.0  1   1    8    0   0.000    0.000    0.000  1
  9   1    3  1 0 2    82  16   100   96   96     0.00000  43.94383 1.04185e-003 11925 20729  -1.14  -3.90  -9.96  -11.72   -6.91    3.58  3.000  0.300 0 1 0 2  2.292  2.292  30.00    4.60     0.00    0.00   1   77.20     0    0    0    43   0.0  1   1    8    0   0.000    0.000    0.000  1
 10   1    3  1 0 2    83  16   100   96   96     0.00000  43.94383 1.04185e-003 13078 22734  -1.14  -3.90  -9.96  -11.15   -3.66    3.52  3.000  0.300 0 1 0 2  2.292  2.292  30.00    4.60     0.00    0.00   1   77.20     0    0    0    43   0.0  1   1    8    0   0.000    0.000    0.000  1
