# === DATA DESCRIPTION FILE ======================================================
#
# CAUTION - Investigational device.
# Limited by Federal Law to investigational use.
#
# Dataset name: Y:\NESDA\NESDA_082_500150_20171801\500150_3_EPI_REST_5_1
#
# CLINICAL TRYOUT             Research image export tool     V4.2
#
# === GENERAL INFORMATION ========================================================
#
.    Patient name                       :   Nesda082^^^^
.    Examination name                   :   MRI SCHEDEL
.    Protocol name                      :   EPI_rest_newprot SENSE
.    Examination date/time              :   2017.01.18 / 17:56:11
.    Series Type                        :   Image   MRSERIES
.    Acquisition nr                     :   5
.    Reconstruction nr                  :   1
.    Scan Duration [sec]                :   722
.    Max. number of cardiac phases      :   1
.    Max. number of echoes              :   1
.    Max. number of slices/locations    :   37
.    Max. number of dynamics            :   310
.    Max. number of mixes               :   1
.    Patient position                   :   Head First Supine
.    Preparation direction              :   Anterior-Posterior
.    Technique                          :   FEEPI
.    Scan resolution  (x, y)            :   96  96
.    Scan mode                          :   MS
.    Repetition time [ms]               :   2300.000  
.    FOV (ap,fh,rl) [mm]                :   220.000  121.800  220.000
.    Water Fat shift [pixels]           :   13.575
.    Angulation midslice(ap,fh,rl)[degr]:   -0.224  0.786  0.275
.    Off Centre midslice(ap,fh,rl) [mm] :   -24.506  29.751  1.075
.    Flow compensation <0=no 1=yes> ?   :   0
.    Presaturation     <0=no 1=yes> ?   :   0
.    Phase encoding velocity [cm/sec]   :   0.000000  0.000000  0.000000
.    MTC               <0=no 1=yes> ?   :   0
.    SPIR              <0=no 1=yes> ?   :   1
.    EPI factor        <0,1=no EPI>     :   43
.    Dynamic scan      <0=no 1=yes> ?   :   1
.    Diffusion         <0=no 1=yes> ?   :   0
.    Diffusion echo time [ms]           :   0.0000
.    Max. number of diffusion values    :   1
.    Max. number of gradient orients    :   1
.    Number of label types   <0=no ASL> :   0
#
# === PIXEL VALUES =============================================================
#  PV = pixel value in REC file, FP = floating point value, DV = displayed value on console
#  RS = rescale slope,           RI = rescale intercept,    SS = scale slope
#  DV = PV * RS + RI             FP = DV / (RS * SS)
#
# === IMAGE INFORMATION DEFINITION =============================================
#  The rest of this file contains ONE line per image, this line contains the following information:
#
#  slice number                             (integer)
#  echo number                              (integer)
#  dynamic scan number                      (integer)
#  cardiac phase number                     (integer)
#  image_type_mr                            (integer)
#  scanning sequence                        (integer)
#  index in REC file (in images)            (integer)
#  image pixel size (in bits)               (integer)
#  scan percentage                          (integer)
#  recon resolution (x y)                   (2*integer)
#  rescale intercept                        (float)
#  rescale slope                            (float)
#  scale slope                              (float)
#  window center                            (integer)
#  window width                             (integer)
#  image angulation (ap,fh,rl in degrees )  (3*float)
#  image offcentre (ap,fh,rl in mm )        (3*float)
#  slice thickness (in mm )                 (float)
#  slice gap (in mm )                       (float)
#  image_display_orientation                (integer)
#  slice orientation ( TRA/SAG/COR )        (integer)
#  fmri_status_indication                   (integer)
#  image_type_ed_es  (end diast/end syst)   (integer)
#  pixel spacing (x,y) (in mm)              (2*float)
#  echo_time                                (float)
#  dyn_scan_begin_time                      (float)
#  trigger_time                             (float)
#  diffusion_b_factor                       (float)
#  number of averages                       (integer)
#  image_flip_angle (in degrees)            (float)
#  cardiac frequency   (bpm)                (integer)
#  minimum RR-interval (in ms)              (integer)
#  maximum RR-interval (in ms)              (integer)
#  TURBO factor  <0=no turbo>               (integer)
#  Inversion delay (in ms)                  (float)
#  diffusion b value number    (imagekey!)  (integer)
#  gradient orientation number (imagekey!)  (integer)
#  contrast type                            (string)
#  diffusion anisotropy type                (string)
#  diffusion (ap, fh, rl)                   (3*float)
#  label type (ASL)            (imagekey!)  (integer)
#
# === IMAGE INFORMATION ==========================================================
#  sl ec  dyn ph ty    idx pix scan% rec size                (re)scale              window        angulation              offcentre        thick   gap   info      spacing     echo     dtime   ttime    diff  avg  flip    freq   RR-int  turbo delay b grad cont anis         diffusion       L.ty

  1   1    1  1 0 2     0  16   100   96   96     0.00000  40.30427 1.26549e-003 12044 20936  -0.22   0.79   0.27  -24.22  -29.65    1.31  3.000  0.300 0 1 0 2  2.292  2.292  30.00    0.00     0.00    0.00   1   77.20     0    0    0    43   0.0  1   1    8    0   0.000    0.000    0.000  1
  2   1    1  1 0 2     1  16   100   96   96     0.00000  40.30427 1.26549e-003  9185 15966  -0.22   0.79   0.27  -24.24  -26.35    1.29  3.000  0.300 0 1 0 2  2.292  2.292  30.00    0.00     0.00    0.00   1   77.20     0    0    0    43   0.0  1   1    8    0   0.000    0.000    0.000  1
  3   1    1  1 0 2     2  16   100   96   96     0.00000  40.30427 1.26549e-003  9254 16086  -0.22   0.79   0.27  -24.25  -23.05    1.28  3.000  0.300 0 1 0 2  2.292  2.292  30.00    0.00     0.00    0.00   1   77.20     0    0    0    43   0.0  1   1    8    0   0.000    0.000    0.000  1
  4   1    1  1 0 2     3  16   100   96   96     0.00000  40.30427 1.26549e-003  9481 16481  -0.22   0.79   0.27  -24.27  -19.75    1.27  3.000  0.300 0 1 0 2  2.292  2.292  30.00    0.00     0.00    0.00   1   77.20     0    0    0    43   0.0  1   1    8    0   0.000    0.000    0.000  1
  5   1    1  1 0 2     4  16   100   96   96     0.00000  40.30427 1.26549e-003  9375 16296  -0.22   0.79   0.27  -24.29  -16.45    1.26  3.000  0.300 0 1 0 2  2.292  2.292  30.00    0.00     0.00    0.00   1   77.20     0    0    0    43   0.0  1   1    8    0   0.000    0.000    0.000  1
  6   1    1  1 0 2     5  16   100   96   96     0.00000  40.30427 1.26549e-003  9018 15676  -0.22   0.79   0.27  -24.30  -13.15    1.24  3.000  0.300 0 1 0 2  2.292  2.292  30.00    0.00     0.00    0.00   1   77.20     0    0    0    43   0.0  1   1    8    0   0.000    0.000    0.000  1
  7   1    1  1 0 2     6  16   100   96   96     0.00000  40.30427 1.26549e-003  8892 15457  -0.22   0.79   0.27  -24.32   -9.85    1.23  3.000  0.300 0 1 0 2  2.292  2.292  30.00    0.00     0.00    0.00   1   77.20     0    0    0    43   0.0  1   1    8    0   0.000    0.000    0.000  1
  8   1    1  1 0 2     7  16   100   96   96     0.00000  40.30427 1.26549e-003  8614 14974  -0.22   0.79   0.27  -24.33   -6.55    1.22  3.000  0.300 0 1 0 2  2.292  2.292  30.00    0.00     0.00    0.00   1   77.20     0    0    0    43   0.0  1   1    8    0   0.000    0.000    0.000  1
  9   1    1  1 0 2     8  16   100   96   96     0.00000  40.30427 1.26549e-003  9461 16445  -0.22   0.79   0.27  -24.35   -3.25    1.20  3.000  0.300 0 1 0 2  2.292  2.292  30.00    0.00     0.00    0.00   1   77.20     0    0    0    43   0.0  1   1    8    0   0.000    0.000    0.000  1
 10   1    1  1 0 2     9  16   100   96   96     0.00000  40.30427 1.26549e-003  9947 17291  -0.22   0.79   0.27  -24.36    0.05    1.19  3.000  0.300 0 1 0 2  2.292  2.292  30.00    0.00     0.00    0.00   1   77.20     0    0    0    43   0.0  1   1    8    0   0.000    0.000    0.000  1
 11   1    1  1 0 2    10  16   100   96   96     0.00000  40.30427 1.26549e-003 10439 18146  -0.22   0.79   0.27  -24.38    3.35    1.18  3.000  0.300 0 1 0 2  2.292  2.292  30.00    0.00     0.00    0.00   1   77.20     0    0    0    43   0.0  1   1    8    0   0.000    0.000    0.000  1
 12   1    1  1 0 2    11  16   100   96   96     0.00000  40.30427 1.26549e-003 10562 18359  -0.22   0.79   0.27  -24.40    6.65    1.17  3.000  0.300 0 1 0 2  2.292  2.292  30.00    0.00     0.00    0.00   1   77.20     0    0    0    43   0.0  1   1    8    0   0.000    0.000    0.000  1
 13   1    1  1 0 2    12  16   100   96   96     0.00000  40.30427 1.26549e-003 10704 18607  -0.22   0.79   0.27  -24.41    9.95    1.15  3.000  0.300 0 1 0 2  2.292  2.292  30.00    0.00     0.00    0.00   1   77.20     0    0    0    43   0.0  1   1    8    0   0.000    0.000    0.000  1
 14   1    1  1 0 2    13  16   100   96   96     0.00000  40.30427 1.26549e-003 10773 18727  -0.22   0.79   0.27  -24.43   13.25    1.14  3.000  0.300 0 1 0 2  2.292  2.292  30.00    0.00     0.00    0.00   1   77.20     0    0    0    43   0.0  1   1    8    0   0.000    0.000    0.000  1
 15   1    1  1 0 2    14  16   100   96   96     0.00000  40.30427 1.26549e-003 10650 18514  -0.22   0.79   0.27  -24.44   16.55    1.13  3.000  0.300 0 1 0 2  2.292  2.292  30.00    0.00     0.00    0.00   1   77.20     0    0    0    43   0.0  1   1    8    0   0.000    0.000    0.000  1
 16   1    1  1 0 2    15  16   100   96   96     0.00000  40.30427 1.26549e-003 10689 18581  -0.22   0.79   0.27  -24.46   19.85    1.11  3.000  0.300 0 1 0 2  2.292  2.292  30.00    0.00     0.00    0.00   1   77.20     0    0    0    43   0.0  1   1    8    0   0.000    0.000    0.000  1
 17   1    1  1 0 2    16  16   100   96   96     0.00000  40.30427 1.26549e-003 10788 18754  -0.22   0.79   0.27  -24.47   23.15    1.10  3.000  0.300 0 1 0 2  2.292  2.292  30.00    0.00     0.00    0.00   1   77.20     0    0    0    43   0.0  1   1    8    0   0.000    0.000    0.000  1
 18   1    1  1 0 2    17  16   100   96   96     0.00000  40.30427 1.26549e-003 10879 18912  -0.22   0.79   0.27  -24.49   26.45    1.09  3.000  0.300 0 1 0 2  2.292  2.292  30.00    0.00     0.00    0.00   1   77.20     0    0    0    43   0.0  1   1    8    0   0.000    0.000    0.000  1
 19   1    1  1 0 2    18  16   100   96   96     0.00000  40.30427 1.26549e-003 10968 19066  -0.22   0.79   0.27  -24.51   29.75    1.08  3.000  0.300 0 1 0 2  2.292  2.292  30.00    0.00     0.00    0.00   1   77.20     0    0    0    43   0.0  1   1    8    0   0.000    0.000    0.000  1
 20   1    1  1 0 2    19  16   100   96   96     0.00000  40.30427 1.26549e-003 10791 18759  -0.22   0.79   0.27  -24.52   33.05    1.06  3.000  0.300 0 1 0 2  2.292  2.292  30.00    0.00     0.00    0.00   1   77.20     0    0    0    43   0.0  1   1    8    0   0.000    0.000    0.000  1
 21   1    1  1 0 2    20  16   100   96   96     0.00000  40.30427 1.26549e-003 10285 17879  -0.22   0.79   0.27  -24.54   36.35    1.05  3.000  0.300 0 1 0 2  2.292  2.292  30.00    0.00     0.00    0.00   1   77.20     0    0    0    43   0.0  1   1    8    0   0.000    0.000    0.000  1
 22   1    1  1 0 2    21  16   100   96   96     0.00000  40.30427 1.26549e-003  8646 15030  -0.22   0.79   0.27  -24.55   39.65    1.04  3.000  0.300 0 1 0 2  2.292  2.292  30.00    0.00     0.00    0.00   1   77.20     0    0    0    43   0.0  1   1    8    0   0.000    0.000    0.000  1
 23   1    1  1 0 2    22  16   100   96   96     0.00000  40.30427 1.26549e-003  8664 15061  -0.22   0.79   0.27  -24.57   42.95    1.02  3.000  0.300 0 1 0 2  2.292  2.292  30.00    0.00     0.00    0.00   1   77.20     0    0    0    43   0.0  1   1    8    0   0.000    0.000    0.000  1
 24   1    1  1 0 2    23  16   100   96   96     0.00000  40.30427 1.26549e-003  9189 15974  -0.22   0.79   0.27  -24.59   46.25    1.01  3.000  0.300 0 1 0 2  2.292  2.292  30.00    0.00     0.00    0.00   1   77.20     0    0    0    43   0.0  1   1    8    0   0.000    0.000    0.000  1
 25   1    1  1 0 2    24  16   100   96   96     0.00000  40.30427 1.26549e-003  9473 16466  -0.22   0.79   0.27  -24.60   49.55    1.00  3.000  0.300 0 1 0 2  2.292  2.292  30.00    0.00     0.00    0.00   1   77.20     0    0    0    43   0.0  1   1    8    0   0.000    0.000    0.000  1
 26   1    1  1 0 2    25  16   100   96   96     0.00000  40.30427 1.26549e-003  9186 15969  -0.22   0.79   0.27  -24.62   52.85    0.98  3.000  0.300 0 1 0 2  2.292  2.292  30.00    0.00     0.00    0.00   1   77.20     0    0    0    43   0.0  1   1    8    0   0.000    0.000    0.000  1
 27   1    1  1 0 2    26  16   100   96   96     0.00000  40.30427 1.26549e-003  9617 16718  -0.22   0.79   0.27  -24.63   56.15    0.97  3.000  0.300 0 1 0 2  2.292  2.292  30.00    0.00     0.00    0.00   1   77.20     0    0    0    43   0.0  1   1    8    0   0.000    0.000    0.000  1
 28   1    1  1 0 2    27  16   100   96   96     0.00000  40.30427 1.26549e-003 10621 18463  -0.22   0.79   0.27  -24.65   59.45    0.96  3.000  0.300 0 1 0 2  2.292  2.292  30.00    0.00     0.00    0.00   1   77.20     0    0    0    43   0.0  1   1    8    0   0.000    0.000    0.000  1
 29   1    1  1 0 2    28  16   100   96   96     0.00000  40.30427 1.26549e-003 10285 17878  -0.22   0.79   0.27  -24.66   62.75    0.95  3.000  0.300 0 1 0 2  2.292  2.292  30.00    0.00     0.00    0.00   1   77.20     0    0    0    43   0.0  1   1    8    0   0.000    0.000    0.000  1
 30   1    1  1 0 2    29  16   100   96   96     0.00000  40.30427 1.26549e-003 10572 18377  -0.22   0.79   0.27  -24.68   66.05    0.93  3.000  0.300 0 1 0 2  2.292  2.292  30.00    0.00     0.00    0.00   1   77.20     0    0    0    43   0.0  1   1    8    0   0.000    0.000    0.000  1
 31   1    1  1 0 2    30  16   100   96   96     0.00000  40.30427 1.26549e-003 10594 18415  -0.22   0.79   0.27  -24.70   69.35    0.92  3.000  0.300 0 1 0 2  2.292  2.292  30.00    0.00     0.00    0.00   1   77.20     0    0    0    43   0.0  1   1    8    0   0.000    0.000    0.000  1
 32   1    1  1 0 2    31  16   100   96   96     0.00000  40.30427 1.26549e-003 10175 17687  -0.22   0.79   0.27  -24.71   72.65    0.91  3.000  0.300 0 1 0 2  2.292  2.292  30.00    0.00     0.00    0.00   1   77.20     0    0    0    43   0.0  1   1    8    0   0.000    0.000    0.000  1
 33   1    1  1 0 2    32  16   100   96   96     0.00000  40.30427 1.26549e-003  9971 17332  -0.22   0.79   0.27  -24.73   75.95    0.89  3.000  0.300 0 1 0 2  2.292  2.292  30.00    0.00     0.00    0.00   1   77.20     0    0    0    43   0.0  1   1    8    0   0.000    0.000    0.000  1
 34   1    1  1 0 2    33  16   100   96   96     0.00000  40.30427 1.26549e-003  9632 16744  -0.22   0.79   0.27  -24.74   79.25    0.88  3.000  0.300 0 1 0 2  2.292  2.292  30.00    0.00     0.00    0.00   1   77.20     0    0    0    43   0.0  1   1    8    0   0.000    0.000    0.000  1
 35   1    1  1 0 2    34  16   100   96   96     0.00000  40.30427 1.26549e-003  8746 15203  -0.22   0.79   0.27  -24.76   82.55    0.87  3.000  0.300 0 1 0 2  2.292  2.292  30.00    0.00     0.00    0.00   1   77.20     0    0    0    43   0.0  1   1    8    0   0.000    0.000    0.000  1
 36   1    1  1 0 2    35  16   100   96   96     0.00000  40.30427 1.26549e-003  5306  9223  -0.22   0.79   0.27  -24.78   85.85    0.86  3.000  0.300 0 1 0 2  2.292  2.292  30.00    0.00     0.00    0.00   1   77.20     0    0    0    43   0.0  1   1    8    0   0.000    0.000    0.000  1
 37   1    1  1 0 2    36  16   100   96   96     0.00000  40.30427 1.26549e-003  1070  1860  -0.22   0.79   0.27  -24.79   89.15    0.84  3.000  0.300 0 1 0 2  2.292  2.292  30.00    0.00     0.00    0.00   1   77.20     0    0    0    43   0.0  1   1    8    0   0.000    0.000    0.000  1
  1   1    2  1 0 2    37  16   100   96   96     0.00000  40.30427 1.26549e-003  9221 16030  -0.22   0.79   0.27  -24.22  -29.65    1.31  3.000  0.300 0 1 0 2  2.292  2.292  30.00    2.30     0.00    0.00   1   77.20     0    0    0    43   0.0  1   1    8    0   0.000    0.000    0.000  1
  2   1    2  1 0 2    38  16   100   96   96     0.00000  40.30427 1.26549e-003  8603 14954  -0.22   0.79   0.27  -24.24  -26.35    1.29  3.000  0.300 0 1 0 2  2.292  2.292  30.00    2.30     0.00    0.00   1   77.20     0    0    0    43   0.0  1   1    8    0   0.000    0.000    0.000  1
  3   1    2  1 0 2    39  16   100   96   96     0.00000  40.30427 1.26549e-003  9556 16612  -0.22   0.79   0.27  -24.25  -23.05    1.28  3.000  0.300 0 1 0 2  2.292  2.292  30.00    2.30     0.00    0.00   1   77.20     0    0    0    43   0.0  1   1    8    0   0.000    0.000    0.000  1
  4   1    2  1 0 2    40  16   100   96   96     0.00000  40.30427 1.26549e-003  9856 17133  -0.22   0.79   0.27  -24.27  -19.75    1.27  3.000  0.300 0 1 0 2  2.292  2.292  30.00    2.30     0.00    0.00   1   77.20     0    0    0    43   0.0  1   1    8    0   0.000    0.000    0.000  1
  5   1    2  1 0 2    41  16   100   96   96     0.00000  40.30427 1.26549e-003  9423 16380  -0.22   0.79   0.27  -24.29  -16.45    1.26  3.000  0.300 0 1 0 2  2.292  2.292  30.00    2.30     0.00    0.00   1   77.20     0    0    0    43   0.0  1   1    8    0   0.000    0.000    0.000  1
  6   1    2  1 0 2    42  16   100   96   96     0.00000  40.30427 1.26549e-003  9023 15685  -0.22   0.79   0.27  -24.30  -13.15    1.24  3.000  0.300 0 1 0 2  2.292  2.292  30.00    2.30     0.00    0.00   1   77.20     0    0    0    43   0.0  1   1    8    0   0.000    0.000    0.000  1
  7   1    2  1 0 2    43  16   100   96   96     0.00000  40.30427 1.26549e-003  8693 15111  -0.22   0.79   0.27  -24.32   -9.85    1.23  3.000  0.300 0 1 0 2  2.292  2.292  30.00    2.30     0.00    0.00   1   77.20     0    0    0    43   0.0  1   1    8    0   0.000    0.000    0.000  1
  8   1    2  1 0 2    44  16   100   96   96     0.00000  40.30427 1.26549e-003  8775 15254  -0.22   0.79   0.27  -24.33   -6.55    1.22  3.000  0.300 0 1 0 2  2.292  2.292  30.00    2.30     0.00    0.00   1   77.20     0    0    0    43   0.0  1   1    8    0   0.000    0.000    0.000  1
  9   1    2  1 0 2    45  16   100   96   96     0.00000  40.30427 1.26549e-003  9529 16564  -0.22   0.79   0.27  -24.35   -3.25    1.20  3.000  0.300 0 1 0 2  2.292  2.292  30.00    2.30     0.00    0.00   1   77.20     0    0    0    43   0.0  1   1    8    0   0.000    0.000    0.000  1
 10   1    2  1 0 2    46  16   100   96   96     0.00000  40.30427 1.26549e-003 10157 17656  -0.22   0.79   0.27  -24.36    0.05    1.19  3.000  0.300 0 1 0 2  2.292  2.292  30.00    2.30     0.00    0.00   1   77.20     0    0    0    43   0.0  1   1    8    0   0.000    0.000    0.000  1
 11   1    2  1 0 2    47  16   100   96   96     0.00000  40.30427 1.26549e-003 10342 17978  -0.22   0.79   0.27  -24.38    3.35    1.18  3.000  0.300 0 1 0 2  2.292  2.292  30.00    2.30     0.00    0.00   1   77.20     0    0    0    43   0.0  1   1    8    0   0.000    0.000    0.000  1
 12   1    2  1 0 2    48  16   100   96   96     0.00000  40.30427 1.26549e-003 10671 18550  -0.22   0.79   0.27  -24.40    6.65    1.17  3.000  0.300 0 1 0 2  2.292  2.292  30.00    2.30     0.00    0.00   1   77.20     0    0    0    43   0.0  1   1    8    0   0.000    0.000    0.000  1
 13   1    2  1 0 2    49  16   100   96   96     0.00000  40.30427 1.26549e-003 10507 18265  -0.22   0.79   0.27  -24.41    9.95    1.15  3.000  0.300 0 1 0 2  2.292  2.292  30.00    2.30     0.00    0.00   1   77.20     0    0    0    43   0.0  1   1    8    0   0.000    0.000    0.000  1
 14   1    2  1 0 2    50  16   100   96   96     0.00000  40.30427 1.26549e-003 10563 18361  -0.22   0.79   0.27  -24.43   13.25    1.14  3.000  0.300 0 1 0 2  2.292  2.292  30.00    2.30     0.00    0.00   1   77.20     0    0    0    43   0.0  1   1    8    0   0.000    0.000    0.000  1
 15   1    2  1 0 2    51  16   100   96   96     0.00000  40.30427 1.26549e-003 10594 18415  -0.22   0.79   0.27  -24.44   16.55    1.13  3.000  0.300 0 1 0 2  2.292  2.292  30.00    2.30     0.00    0.00   1   77.20     0    0    0    43   0.0  1   1    8    0   0.000    0.000    0.000  1
 16   1    2  1 0 2    52  16   100   96   96     0.00000  40.30427 1.26549e-003 10523 18293  -0.22   0.79   0.27  -24.46   19.85    1.11  3.000  0.300 0 1 0 2  2.292  2.292  30.00    2.30     0.00    0.00   1   77.20     0    0    0    43   0.0  1   1    8    0   0.000    0.000    0.000  1
 17   1    2  1 0 2    53  16   100   96   96     0.00000  40.30427 1.26549e-003 10634 18486  -0.22   0.79   0.27  -24.47   23.15    1.10  3.000  0.300 0 1 0 2  2.292  2.292  30.00    2.30     0.00    0.00   1   77.20     0    0    0    43   0.0  1   1    8    0   0.000    0.000    0.000  1
 18   1    2  1 0 2    54  16   100   96   96     0.00000  40.30427 1.26549e-003 11000 19121  -0.22   0.79   0.27  -24.49   26.45    1.09  3.000  0.300 0 1 0 2  2.292  2.292  30.00    2.30     0.00    0.00   1   77.20     0    0    0    43   0.0  1   1    8    0   0.000    0.000    0.000  1
 19   1    2  1 0 2    55  16   100   96   96     0.00000  40.30427 1.26549e-003 11037 19186  -0.22   0.79   0.27  -24.51   29.75    1.08  3.000  0.300 0 1 0 2  2.292  2.292  30.00    2.30     0.00    0.00   1   77.20     0    0    0    43   0.0  1   1    8    0   0.000    0.000    0.000  1
 20   1    2  1 0 2    56  16   100   96   96     0.00000  40.30427 1.26549e-003 10658 18527  -0.22   0.79   0.27  -24.52   33.05    1.06  3.000  0.300 0 1 0 2  2.292  2.292  30.00    2.30     0.00    0.00   1   77.20     0    0    0    43   0.0  1   1    8    0   0.000    0.000    0.000  1
 21   1    2  1 0 2    57  16   100   96   96     0.00000  40.30427 1.26549e-003 10284 17877  -0.22   0.79   0.27  -24.54   36.35    1.05  3.000  0.300 0 1 0 2  2.292  2.292  30.00    2.30     0.00    0.00   1   77.20     0    0    0    43   0.0  1   1    8    0   0.000    0.000    0.000  1
 22   1    2  1 0 2    58  16   100   96   96     0.00000  40.30427 1.26549e-003  8583 14920  -0.22   0.79   0.27  -24.55   39.65    1.04  3.000  0.300 0 1 0 2  2.292  2.292  30.00    2.30     0.00    0.00   1   77.20     0    0    0    43   0.0  1   1    8    0   0.000    0.000    0.000  1
 23   1    2  1 0 2    59  16   100   96   96     0.00000  40.30427 1.26549e-003  8769 15242  -0.22   0.79   0.27  -24.57   42.95    1.02  3.000  0.300 0 1 0 2  2.292  2.292  30.00    2.30     0.00    0.00   1   77.20     0    0    0    43   0.0  1   1    8    0   0.000    0.000    0.000  1
 24   1    2  1 0 2    60  16   100   96   96     0.00000  40.30427 1.26549e-003  9219 16025  -0.22   0.79   0.27  -24.59   46.25    1.01  3.000  0.300 0 1 0 2  2.292  2.292  30.00    2.30     0.00    0.00   1   77.20     0    0    0    43   0.0  1   1    8    0   0.000    0.000    0.000  1
 25   1    2  1 0 2    61  16   100   96   96     0.00000  40.30427 1.26549e-003  9506 16525  -0.22   0.79   0.27  -24.60   49.55    1.00  3.000  0.300 0 1 0 2  2.292  2.292  30.00    2.30     0.00    0.00   1   77.20     0    0    0    43   0.0  1   1    8    0   0.000    0.000    0.000  1
 26   1    2  1 0 2    62  16   100   96   96     0.00000  40.30427 1.26549e-003  9182 15960  -0.22   0.79   0.27  -24.62   52.85    0.98  3.000  0.300 0 1 0 2  2.292  2.292  30.00    2.30     0.00    0.00   1   77.20     0    0    0    43   0.0  1   1    8    0   0.000    0.000    0.000  1
 27   1    2  1 0 2    63  16   100   96   96     0.00000  40.30427 1.26549e-003  9636 16751  -0.22   0.79   0.27  -24.63   56.15    0.97  3.000  0.300 0 1 0 2  2.292  2.292  30.00    2.30     0.00    0.00   1   77.20     0    0    0    43   0.0  1   1    8    0   0.000    0.000    0.000  1
 28   1    2  1 0 2    64  16   100   96   96     0.00000  40.30427 1.26549e-003 10581 18394  -0.22   0.79   0.27  -24.65   59.45    0.96  3.000  0.300 0 1 0 2  2.292  2.292  30.00    2.30     0.00    0.00   1   77.20     0    0    0    43   0.0  1   1    8    0   0.000    0.000    0.000  1
 29   1    2  1 0 2    65  16   100   96   96     0.00000  40.30427 1.26549e-003 10385 18052  -0.22   0.79   0.27  -24.66   62.75    0.95  3.000  0.300 0 1 0 2  2.292  2.292  30.00    2.30     0.00    0.00   1   77.20     0    0    0    43   0.0  1   1    8    0   0.000    0.000    0.000  1
 30   1    2  1 0 2    66  16   100   96   96     0.00000  40.30427 1.26549e-003 10555 18347  -0.22   0.79   0.27  -24.68   66.05    0.93  3.000  0.300 0 1 0 2  2.292  2.292  30.00    2.30     0.00    0.00   1   77.20     0    0    0    43   0.0  1   1    8    0   0.000    0.000    0.000  1
 31   1    2  1 0 2    67  16   100   96   96     0.00000  40.30427 1.26549e-003 10660 18530  -0.22   0.79   0.27  -24.70   69.35    0.92  3.000  0.300 0 1 0 2  2.292  2.292  30.00    2.30     0.00    0.00   1   77.20     0    0    0    43   0.0  1   1    8    0   0.000    0.000    0.000  1
 32   1    2  1 0 2    68  16   100   96   96     0.00000  40.30427 1.26549e-003 10183 17702  -0.22   0.79   0.27  -24.71   72.65    0.91  3.000  0.300 0 1 0 2  2.292  2.292  30.00    2.30     0.00    0.00   1   77.20     0    0    0    43   0.0  1   1    8    0   0.000    0.000    0.000  1
 33   1    2  1 0 2    69  16   100   96   96     0.00000  40.30427 1.26549e-003  9999 17382  -0.22   0.79   0.27  -24.73   75.95    0.89  3.000  0.300 0 1 0 2  2.292  2.292  30.00    2.30     0.00    0.00   1   77.20     0    0    0    43   0.0  1   1    8    0   0.000    0.000    0.000  1
 34   1    2  1 0 2    70  16   100   96   96     0.00000  40.30427 1.26549e-003  9587 16665  -0.22   0.79   0.27  -24.74   79.25    0.88  3.000  0.300 0 1 0 2  2.292  2.292  30.00    2.30     0.00    0.00   1   77.20     0    0    0    43   0.0  1   1    8    0   0.000    0.000    0.000  1
 35   1    2  1 0 2    71  16   100   96   96     0.00000  40.30427 1.26549e-003  8667 15067  -0.22   0.79   0.27  -24.76   82.55    0.87  3.000  0.300 0 1 0 2  2.292  2.292  30.00    2.30     0.00    0.00   1   77.20     0    0    0    43   0.0  1   1    8    0   0.000    0.000    0.000  1
 36   1    2  1 0 2    72  16   100   96   96     0.00000  40.30427 1.26549e-003  5258  9140  -0.22   0.79   0.27  -24.78   85.85    0.86  3.000  0.300 0 1 0 2  2.292  2.292  30.00    2.30     0.00    0.00   1   77.20     0    0    0    43   0.0  1   1    8    0   0.000    0.000    0.000  1
 37   1    2  1 0 2    73  16   100   96   96     0.00000  40.30427 1.26549e-003  1005  1747  -0.22   0.79   0.27  -24.79   89.15    0.84  3.000  0.300 0 1 0 2  2.292  2.292  30.00    2.30     0.00    0.00   1   77.20     0    0    0    43   0.0  1   1    8    0   0.000    0.000    0.000  1
  1   1    3  1 0 2    74  16   100   96   96     0.00000  40.30427 1.26549e-003 10934 19007  -0.22   0.79   0.27  -24.22  -29.65    1.31  3.000  0.300 0 1 0 2  2.292  2.292  30.00    4.60     0.00    0.00   1   77.20     0    0    0    43   0.0  1   1    8    0   0.000    0.000    0.000  1
  2   1    3  1 0 2    75  16   100   96   96     0.00000  40.30427 1.26549e-003  8862 15406  -0.22   0.79   0.27  -24.24  -26.35    1.29  3.000  0.300 0 1 0 2  2.292  2.292  30.00    4.60     0.00    0.00   1   77.20     0    0    0    43   0.0  1   1    8    0   0.000    0.000    0.000  1
  3   1    3  1 0 2    76  16   100   96   96     0.00000  40.30427 1.26549e-003  9068 15763  -0.22   0.79   0.27  -24.25  -23.05    1.28  3.000  0.300 0 1 0 2  2.292  2.292  30.00    4.60     0.00    0.00   1   77.20     0    0    0    43   0.0  1   1    8    0   0.000    0.000    0.000  1
  4   1    3  1 0 2    77  16   100   96   96     0.00000  40.30427 1.26549e-003  9376 16299  -0.22   0.79   0.27  -24.27  -19.75    1.27  3.000  0.300 0 1 0 2  2.292  2.292  30.00    4.60     0.00    0.00   1   77.20     0    0    0    43   0.0  1   1    8    0   0.000    0.000    0.000  1
  5   1    3  1 0 2    78  16   100   96   96     0.00000  40.30427 1.26549e-003  9523 16554  -0.22   0.79   0.27  -24.29  -16.45    1.26  3.000  0.300 0 1 0 2  2.292  2.292  30.00    4.60     0.00    0.00   1   77.20     0    0    0    43   0.0  1   1    8    0   0.000    0.000    0.000  1
  6   1    3  1 0 2    79  16   100   96   96     0.00000  40.30427 1.26549e-003  8822 15335  -0.22   0.79   0.27  -24.30  -13.15    1.24  3.000  0.300 0 1 0 2  2.292  2.292  30.00    4.60     0.00    0.00   1   77.20     0    0    0    43   0.0  1   1    8    0   0.000    0.000    0.000  1
  7   1    3  1 0 2    80  16   100   96   96     0.00000  40.30427 1.26549e-003  8628 14997  -0.22   0.79   0.27  -24.32   -9.85    1.23  3.000  0.300 0 1 0 2  2.292  2.292  30.00    4.60     0.00    0.00   1   77.20     0    0    0    43   0.0  1   1    8    0   0.000    0.000    0.000  1
  8   1    3  1 0 2    81  16   100   96   96     0.00000  40.30427 1.26549e-003  8253 14346  -0.22   0.79   0.27  -24.33   -6.55    1.22  3.000  0.300 0 1 0 2  2.292  2.292  30.00    4.60     0.00    0.00   1   77.20     0    0    0    43   0.0  1   1    8    0   0.000    0.000    0.000  1
  9   1    3  1 0 2    82  16   100   96   96     0.00000  40.30427 1.26549e-003  9495 16505  -0.22   0.79   0.27  -24.35   -3.25    1.20  3.000  0.300 0 1 0 2  2.292  2.292  30.00    4.60     0.00    0.00   1   77.20     0    0    0    43   0.0  1   1    8    0   0.000    0.000    0.000  1
