# === DATA DESCRIPTION FILE ======================================================
#
# CAUTION - Investigational device.
# Limited by Federal Law to investigational use.
#
# Dataset name: E:\Export/NESDA_120479_8_1
#
# CLINICAL TRYOUT             Research image export tool     V4
#
# === GENERAL INFORMATION ========================================================
#
.    Patient name                       :   
.    Examination name                   :   NESDA_M1_120479
.    Protocol name                      :   RESTING STATE SENSE
.    Examination date/time              :   2006.09.01 / 09:36:14
.    Series Type                        :   Image   MRSERIES
.    Acquisition nr                     :   8
.    Reconstruction nr                  :   1
.    Scan Duration [sec]                :   470
.    Max. number of cardiac phases      :   1
.    Max. number of echoes              :   1
.    Max. number of slices/locations    :   35
.    Max. number of dynamics            :   200
.    Max. number of mixes               :   1
.    Patient position                   :   Head First Supine
.    Preparation direction              :   Anterior-Posterior
.    Technique                          :   FEEPI
.    Scan resolution  (x, y)            :   96  96
.    Scan mode                          :   MS
.    Repetition time [ms]               :   2315.0  
.    FOV (ap,fh,rl) [mm]                :   220.00  105.00  220.00
.    Water Fat shift [pixels]           :   14.01
.    Angulation midslice(ap,fh,rl)[degr]:   3.57  -0.05  0.84
.    Off Centre midslice(ap,fh,rl) [mm] :   -9.71  40.71  -0.18
.    Flow compensation <0=no 1=yes> ?   :   0
.    Presaturation     <0=no 1=yes> ?   :   0
.    Phase encoding velocity [cm/sec]   :   0.00  0.00  0.00
.    MTC               <0=no 1=yes> ?   :   0
.    SPIR              <0=no 1=yes> ?   :   1
.    EPI factor        <0,1=no EPI>     :   43
.    Dynamic scan      <0=no 1=yes> ?   :   1
.    Diffusion         <0=no 1=yes> ?   :   0
.    Diffusion echo time [ms]           :   0.00
#
# === PIXEL VALUES =============================================================
#  PV = pixel value in REC file, FP = floating point value, DV = displayed value on console
#  RS = rescale slope,           RI = rescale intercept,    SS = scale slope
#  DV = PV * RS + RI             FP = DV / (RS * SS)
#
# === IMAGE INFORMATION DEFINITION =============================================
#  The rest of this file contains ONE line per image, this line contains the following information:
#
#  slice number                             (integer)
#  echo number                              (integer)
#  dynamic scan number                      (integer)
#  cardiac phase number                     (integer)
#  image_type_mr                            (integer)
#  scanning sequence                        (integer)
#  index in REC file (in images)            (integer)
#  image pixel size (in bits)               (integer)
#  scan percentage                          (integer)
#  recon resolution (x y)                   (2*integer)
#  rescale intercept                        (float)
#  rescale slope                            (float)
#  scale slope                              (float)
#  window center                            (integer)
#  window width                             (integer)
#  image angulation (ap,fh,rl in degrees )  (3*float)
#  image offcentre (ap,fh,rl in mm )        (3*float)
#  slice thickness (in mm )                 (float)
#  slice gap (in mm )                       (float)
#  image_display_orientation                (integer)
#  slice orientation ( TRA/SAG/COR )        (integer)
#  fmri_status_indication                   (integer)
#  image_type_ed_es  (end diast/end syst)   (integer)
#  pixel spacing (x,y) (in mm)              (2*float)
#  echo_time                                (float)
#  dyn_scan_begin_time                      (float)
#  trigger_time                             (float)
#  diffusion_b_factor                       (float)
#  number of averages                       (integer)
#  image_flip_angle (in degrees)            (float)
#  cardiac frequency   (bpm)                (integer)
#  minimum RR-interval (in ms)              (integer)
#  maximum RR-interval (in ms)              (integer)
#  TURBO factor  <0=no turbo>               (integer)
#  Inversion delay (in ms)                  (float)
#
# === IMAGE INFORMATION ==========================================================
#sl ec dyn ph ty  idx pix scan% rec size (re)scale             window       angulation        offcentre           thick gap  info      spacing   echo dtime ttime diff  avg flip freq RR-int turbo delay

 1  1   1  1 0 2   0 16 100   96 96    0.0  2.174 5.634e-004  1000  2000   3.6  -0.1   0.8   -9.0  -10.2   -3.4  3.0 0.0  0 1 1 2  2.292 2.292  30.0   0.0   0.0  0.000  1  80.0   0    0 0  0   0.0
 2  1   1  1 0 2   1 16 100   96 96    0.0  2.174 5.634e-004   962  1925   3.6  -0.1   0.8   -9.0   -7.2   -3.2  3.0 0.0  0 1 1 2  2.292 2.292  30.0   0.0   0.0  0.000  1  80.0   0    0 0  0   0.0
 3  1   1  1 0 2   2 16 100   96 96    0.0  2.174 5.634e-004   950  1900   3.6  -0.1   0.8   -9.1   -4.2   -3.0  3.0 0.0  0 1 1 2  2.292 2.292  30.0   0.0   0.0  0.000  1  80.0   0    0 0  0   0.0
 4  1   1  1 0 2   3 16 100   96 96    0.0  2.174 5.634e-004  1098  2196   3.6  -0.1   0.8   -9.1   -1.2   -2.8  3.0 0.0  0 1 1 2  2.292 2.292  30.0   0.0   0.0  0.000  1  80.0   0    0 0  0   0.0
 5  1   1  1 0 2   4 16 100   96 96    0.0  2.174 5.634e-004  1042  2084   3.6  -0.1   0.8   -9.1    1.8   -2.6  3.0 0.0  0 1 1 2  2.292 2.292  30.0   0.0   0.0  0.000  1  80.0   0    0 0  0   0.0
 6  1   1  1 0 2   5 16 100   96 96    0.0  2.174 5.634e-004  1037  2073   3.6  -0.1   0.8   -9.2    4.8   -2.4  3.0 0.0  0 1 1 2  2.292 2.292  30.0   0.0   0.0  0.000  1  80.0   0    0 0  0   0.0
 7  1   1  1 0 2   6 16 100   96 96    0.0  2.174 5.634e-004  1006  2011   3.6  -0.1   0.8   -9.2    7.8   -2.2  3.0 0.0  0 1 1 2  2.292 2.292  30.0   0.0   0.0  0.000  1  80.0   0    0 0  0   0.0
 8  1   1  1 0 2   7 16 100   96 96    0.0  2.174 5.634e-004   979  1958   3.6  -0.1   0.8   -9.3   10.8   -2.0  3.0 0.0  0 1 1 2  2.292 2.292  30.0   0.0   0.0  0.000  1  80.0   0    0 0  0   0.0
 9  1   1  1 0 2   8 16 100   96 96    0.0  2.174 5.634e-004  1065  2130   3.6  -0.1   0.8   -9.3   13.8   -1.9  3.0 0.0  0 1 1 2  2.292 2.292  30.0   0.0   0.0  0.000  1  80.0   0    0 0  0   0.0
10  1   1  1 0 2   9 16 100   96 96    0.0  2.174 5.634e-004   979  1957   3.6  -0.1   0.8   -9.4   16.8   -1.7  3.0 0.0  0 1 1 2  2.292 2.292  30.0   0.0   0.0  0.000  1  80.0   0    0 0  0   0.0
11  1   1  1 0 2  10 16 100   96 96    0.0  2.174 5.634e-004  1066  2132   3.6  -0.1   0.8   -9.4   19.8   -1.5  3.0 0.0  0 1 1 2  2.292 2.292  30.0   0.0   0.0  0.000  1  80.0   0    0 0  0   0.0
12  1   1  1 0 2  11 16 100   96 96    0.0  2.174 5.634e-004  1032  2064   3.6  -0.1   0.8   -9.4   22.7   -1.3  3.0 0.0  0 1 1 2  2.292 2.292  30.0   0.0   0.0  0.000  1  80.0   0    0 0  0   0.0
13  1   1  1 0 2  12 16 100   96 96    0.0  2.174 5.634e-004  1061  2122   3.6  -0.1   0.8   -9.5   25.7   -1.1  3.0 0.0  0 1 1 2  2.292 2.292  30.0   0.0   0.0  0.000  1  80.0   0    0 0  0   0.0
14  1   1  1 0 2  13 16 100   96 96    0.0  2.174 5.634e-004   964  1927   3.6  -0.1   0.8   -9.5   28.7   -0.9  3.0 0.0  0 1 1 2  2.292 2.292  30.0   0.0   0.0  0.000  1  80.0   0    0 0  0   0.0
15  1   1  1 0 2  14 16 100   96 96    0.0  2.174 5.634e-004   928  1855   3.6  -0.1   0.8   -9.6   31.7   -0.7  3.0 0.0  0 1 1 2  2.292 2.292  30.0   0.0   0.0  0.000  1  80.0   0    0 0  0   0.0
16  1   1  1 0 2  15 16 100   96 96    0.0  2.174 5.634e-004   959  1917   3.6  -0.1   0.8   -9.6   34.7   -0.6  3.0 0.0  0 1 1 2  2.292 2.292  30.0   0.0   0.0  0.000  1  80.0   0    0 0  0   0.0
17  1   1  1 0 2  16 16 100   96 96    0.0  2.174 5.634e-004   947  1894   3.6  -0.1   0.8   -9.7   37.7   -0.4  3.0 0.0  0 1 1 2  2.292 2.292  30.0   0.0   0.0  0.000  1  80.0   0    0 0  0   0.0
18  1   1  1 0 2  17 16 100   96 96    0.0  2.174 5.634e-004  1009  2018   3.6  -0.1   0.8   -9.7   40.7   -0.2  3.0 0.0  0 1 1 2  2.292 2.292  30.0   0.0   0.0  0.000  1  80.0   0    0 0  0   0.0
19  1   1  1 0 2  18 16 100   96 96    0.0  2.174 5.634e-004  1011  2022   3.6  -0.1   0.8   -9.8   43.7    0.0  3.0 0.0  0 1 1 2  2.292 2.292  30.0   0.0   0.0  0.000  1  80.0   0    0 0  0   0.0
20  1   1  1 0 2  19 16 100   96 96    0.0  2.174 5.634e-004  1017  2034   3.6  -0.1   0.8   -9.8   46.7    0.2  3.0 0.0  0 1 1 2  2.292 2.292  30.0   0.0   0.0  0.000  1  80.0   0    0 0  0   0.0
21  1   1  1 0 2  20 16 100   96 96    0.0  2.174 5.634e-004  1004  2007   3.6  -0.1   0.8   -9.8   49.7    0.4  3.0 0.0  0 1 1 2  2.292 2.292  30.0   0.0   0.0  0.000  1  80.0   0    0 0  0   0.0
22  1   1  1 0 2  21 16 100   96 96    0.0  2.174 5.634e-004  1008  2015   3.6  -0.1   0.8   -9.9   52.7    0.6  3.0 0.0  0 1 1 2  2.292 2.292  30.0   0.0   0.0  0.000  1  80.0   0    0 0  0   0.0
23  1   1  1 0 2  22 16 100   96 96    0.0  2.174 5.634e-004   963  1926   3.6  -0.1   0.8   -9.9   55.7    0.8  3.0 0.0  0 1 1 2  2.292 2.292  30.0   0.0   0.0  0.000  1  80.0   0    0 0  0   0.0
24  1   1  1 0 2  23 16 100   96 96    0.0  2.174 5.634e-004   874  1749   3.6  -0.1   0.8  -10.0   58.7    0.9  3.0 0.0  0 1 1 2  2.292 2.292  30.0   0.0   0.0  0.000  1  80.0   0    0 0  0   0.0
25  1   1  1 0 2  24 16 100   96 96    0.0  2.174 5.634e-004   801  1602   3.6  -0.1   0.8  -10.0   61.7    1.1  3.0 0.0  0 1 1 2  2.292 2.292  30.0   0.0   0.0  0.000  1  80.0   0    0 0  0   0.0
26  1   1  1 0 2  25 16 100   96 96    0.0  2.174 5.634e-004   788  1575   3.6  -0.1   0.8  -10.1   64.7    1.3  3.0 0.0  0 1 1 2  2.292 2.292  30.0   0.0   0.0  0.000  1  80.0   0    0 0  0   0.0
27  1   1  1 0 2  26 16 100   96 96    0.0  2.174 5.634e-004   704  1408   3.6  -0.1   0.8  -10.1   67.7    1.5  3.0 0.0  0 1 1 2  2.292 2.292  30.0   0.0   0.0  0.000  1  80.0   0    0 0  0   0.0
28  1   1  1 0 2  27 16 100   96 96    0.0  2.174 5.634e-004   751  1502   3.6  -0.1   0.8  -10.1   70.6    1.7  3.0 0.0  0 1 1 2  2.292 2.292  30.0   0.0   0.0  0.000  1  80.0   0    0 0  0   0.0
29  1   1  1 0 2  28 16 100   96 96    0.0  2.174 5.634e-004   715  1429   3.6  -0.1   0.8  -10.2   73.6    1.9  3.0 0.0  0 1 1 2  2.292 2.292  30.0   0.0   0.0  0.000  1  80.0   0    0 0  0   0.0
30  1   1  1 0 2  29 16 100   96 96    0.0  2.174 5.634e-004   733  1466   3.6  -0.1   0.8  -10.2   76.6    2.1  3.0 0.0  0 1 1 2  2.292 2.292  30.0   0.0   0.0  0.000  1  80.0   0    0 0  0   0.0
31  1   1  1 0 2  30 16 100   96 96    0.0  2.174 5.634e-004   701  1402   3.6  -0.1   0.8  -10.3   79.6    2.3  3.0 0.0  0 1 1 2  2.292 2.292  30.0   0.0   0.0  0.000  1  80.0   0    0 0  0   0.0
32  1   1  1 0 2  31 16 100   96 96    0.0  2.174 5.634e-004   712  1425   3.6  -0.1   0.8  -10.3   82.6    2.4  3.0 0.0  0 1 1 2  2.292 2.292  30.0   0.0   0.0  0.000  1  80.0   0    0 0  0   0.0
33  1   1  1 0 2  32 16 100   96 96    0.0  2.174 5.634e-004   698  1396   3.6  -0.1   0.8  -10.4   85.6    2.6  3.0 0.0  0 1 1 2  2.292 2.292  30.0   0.0   0.0  0.000  1  80.0   0    0 0  0   0.0
34  1   1  1 0 2  33 16 100   96 96    0.0  2.174 5.634e-004   766  1533   3.6  -0.1   0.8  -10.4   88.6    2.8  3.0 0.0  0 1 1 2  2.292 2.292  30.0   0.0   0.0  0.000  1  80.0   0    0 0  0   0.0
35  1   1  1 0 2  34 16 100   96 96    0.0  2.174 5.634e-004   732  1465   3.6  -0.1   0.8  -10.5   91.6    3.0  3.0 0.0  0 1 1 2  2.292 2.292  30.0   0.0   0.0  0.000  1  80.0   0    0 0  0   0.0
 1  1   2  1 0 2  35 16 100   96 96    0.0  2.174 5.634e-004  1327  2655   3.6  -0.1   0.8   -9.0  -10.2   -3.4  3.0 0.0  0 1 1 2  2.292 2.292  30.0   2.3   0.0  0.000  1  80.0   0    0 0  0   0.0
 2  1   2  1 0 2  36 16 100   96 96    0.0  2.174 5.634e-004   904  1808   3.6  -0.1   0.8   -9.0   -7.2   -3.2  3.0 0.0  0 1 1 2  2.292 2.292  30.0   2.3   0.0  0.000  1  80.0   0    0 0  0   0.0
 3  1   2  1 0 2  37 16 100   96 96    0.0  2.174 5.634e-004   976  1952   3.6  -0.1   0.8   -9.1   -4.2   -3.0  3.0 0.0  0 1 1 2  2.292 2.292  30.0   2.3   0.0  0.000  1  80.0   0    0 0  0   0.0
 4  1   2  1 0 2  38 16 100   96 96    0.0  2.174 5.634e-004  1044  2088   3.6  -0.1   0.8   -9.1   -1.2   -2.8  3.0 0.0  0 1 1 2  2.292 2.292  30.0   2.3   0.0  0.000  1  80.0   0    0 0  0   0.0
 5  1   2  1 0 2  39 16 100   96 96    0.0  2.174 5.634e-004  1112  2225   3.6  -0.1   0.8   -9.1    1.8   -2.6  3.0 0.0  0 1 1 2  2.292 2.292  30.0   2.3   0.0  0.000  1  80.0   0    0 0  0   0.0
 6  1   2  1 0 2  40 16 100   96 96    0.0  2.174 5.634e-004  1084  2167   3.6  -0.1   0.8   -9.2    4.8   -2.4  3.0 0.0  0 1 1 2  2.292 2.292  30.0   2.3   0.0  0.000  1  80.0   0    0 0  0   0.0
 7  1   2  1 0 2  41 16 100   96 96    0.0  2.174 5.634e-004  1069  2137   3.6  -0.1   0.8   -9.2    7.8   -2.2  3.0 0.0  0 1 1 2  2.292 2.292  30.0   2.3   0.0  0.000  1  80.0   0    0 0  0   0.0
 8  1   2  1 0 2  42 16 100   96 96    0.0  2.174 5.634e-004  1007  2014   3.6  -0.1   0.8   -9.3   10.8   -2.0  3.0 0.0  0 1 1 2  2.292 2.292  30.0   2.3   0.0  0.000  1  80.0   0    0 0  0   0.0
 9  1   2  1 0 2  43 16 100   96 96    0.0  2.174 5.634e-004  1100  2201   3.6  -0.1   0.8   -9.3   13.8   -1.9  3.0 0.0  0 1 1 2  2.292 2.292  30.0   2.3   0.0  0.000  1  80.0   0    0 0  0   0.0
10  1   2  1 0 2  44 16 100   96 96    0.0  2.174 5.634e-004   948  1897   3.6  -0.1   0.8   -9.4   16.8   -1.7  3.0 0.0  0 1 1 2  2.292 2.292  30.0   2.3   0.0  0.000  1  80.0   0    0 0  0   0.0
11  1   2  1 0 2  45 16 100   96 96    0.0  2.174 5.634e-004   968  1937   3.6  -0.1   0.8   -9.4   19.8   -1.5  3.0 0.0  0 1 1 2  2.292 2.292  30.0   2.3   0.0  0.000  1  80.0   0    0 0  0   0.0
12  1   2  1 0 2  46 16 100   96 96    0.0  2.174 5.634e-004  1094  2187   3.6  -0.1   0.8   -9.4   22.7   -1.3  3.0 0.0  0 1 1 2  2.292 2.292  30.0   2.3   0.0  0.000  1  80.0   0    0 0  0   0.0
13  1   2  1 0 2  47 16 100   96 96    0.0  2.174 5.634e-004  1005  2008   3.6  -0.1   0.8   -9.5   25.7   -1.1  3.0 0.0  0 1 1 2  2.292 2.292  30.0   2.3   0.0  0.000  1  80.0   0    0 0  0   0.0
14  1   2  1 0 2  48 16 100   96 96    0.0  2.174 5.634e-004   997  1994   3.6  -0.1   0.8   -9.5   28.7   -0.9  3.0 0.0  0 1 1 2  2.292 2.292  30.0   2.3   0.0  0.000  1  80.0   0    0 0  0   0.0
15  1   2  1 0 2  49 16 100   96 96    0.0  2.174 5.634e-004   932  1864   3.6  -0.1   0.8   -9.6   31.7   -0.7  3.0 0.0  0 1 1 2  2.292 2.292  30.0   2.3   0.0  0.000  1  80.0   0    0 0  0   0.0
16  1   2  1 0 2  50 16 100   96 96    0.0  2.174 5.634e-004   911  1822   3.6  -0.1   0.8   -9.6   34.7   -0.6  3.0 0.0  0 1 1 2  2.292 2.292  30.0   2.3   0.0  0.000  1  80.0   0    0 0  0   0.0
17  1   2  1 0 2  51 16 100   96 96    0.0  2.174 5.634e-004   924  1848   3.6  -0.1   0.8   -9.7   37.7   -0.4  3.0 0.0  0 1 1 2  2.292 2.292  30.0   2.3   0.0  0.000  1  80.0   0    0 0  0   0.0
18  1   2  1 0 2  52 16 100   96 96    0.0  2.174 5.634e-004  1022  2043   3.6  -0.1   0.8   -9.7   40.7   -0.2  3.0 0.0  0 1 1 2  2.292 2.292  30.0   2.3   0.0  0.000  1  80.0   0    0 0  0   0.0
19  1   2  1 0 2  53 16 100   96 96    0.0  2.174 5.634e-004  1021  2042   3.6  -0.1   0.8   -9.8   43.7    0.0  3.0 0.0  0 1 1 2  2.292 2.292  30.0   2.3   0.0  0.000  1  80.0   0    0 0  0   0.0
20  1   2  1 0 2  54 16 100   96 96    0.0  2.174 5.634e-004  1007  2013   3.6  -0.1   0.8   -9.8   46.7    0.2  3.0 0.0  0 1 1 2  2.292 2.292  30.0   2.3   0.0  0.000  1  80.0   0    0 0  0   0.0
21  1   2  1 0 2  55 16 100   96 96    0.0  2.174 5.634e-004   990  1979   3.6  -0.1   0.8   -9.8   49.7    0.4  3.0 0.0  0 1 1 2  2.292 2.292  30.0   2.3   0.0  0.000  1  80.0   0    0 0  0   0.0
22  1   2  1 0 2  56 16 100   96 96    0.0  2.174 5.634e-004  1012  2023   3.6  -0.1   0.8   -9.9   52.7    0.6  3.0 0.0  0 1 1 2  2.292 2.292  30.0   2.3   0.0  0.000  1  80.0   0    0 0  0   0.0
23  1   2  1 0 2  57 16 100   96 96    0.0  2.174 5.634e-004   969  1938   3.6  -0.1   0.8   -9.9   55.7    0.8  3.0 0.0  0 1 1 2  2.292 2.292  30.0   2.3   0.0  0.000  1  80.0   0    0 0  0   0.0
24  1   2  1 0 2  58 16 100   96 96    0.0  2.174 5.634e-004   891  1782   3.6  -0.1   0.8  -10.0   58.7    0.9  3.0 0.0  0 1 1 2  2.292 2.292  30.0   2.3   0.0  0.000  1  80.0   0    0 0  0   0.0
25  1   2  1 0 2  59 16 100   96 96    0.0  2.174 5.634e-004   822  1644   3.6  -0.1   0.8  -10.0   61.7    1.1  3.0 0.0  0 1 1 2  2.292 2.292  30.0   2.3   0.0  0.000  1  80.0   0    0 0  0   0.0
26  1   2  1 0 2  60 16 100   96 96    0.0  2.174 5.634e-004   764  1527   3.6  -0.1   0.8  -10.1   64.7    1.3  3.0 0.0  0 1 1 2  2.292 2.292  30.0   2.3   0.0  0.000  1  80.0   0    0 0  0   0.0
27  1   2  1 0 2  61 16 100   96 96    0.0  2.174 5.634e-004   713  1425   3.6  -0.1   0.8  -10.1   67.7    1.5  3.0 0.0  0 1 1 2  2.292 2.292  30.0   2.3   0.0  0.000  1  80.0   0    0 0  0   0.0
28  1   2  1 0 2  62 16 100   96 96    0.0  2.174 5.634e-004   745  1490   3.6  -0.1   0.8  -10.1   70.6    1.7  3.0 0.0  0 1 1 2  2.292 2.292  30.0   2.3   0.0  0.000  1  80.0   0    0 0  0   0.0
29  1   2  1 0 2  63 16 100   96 96    0.0  2.174 5.634e-004   718  1436   3.6  -0.1   0.8  -10.2   73.6    1.9  3.0 0.0  0 1 1 2  2.292 2.292  30.0   2.3   0.0  0.000  1  80.0   0    0 0  0   0.0
30  1   2  1 0 2  64 16 100   96 96    0.0  2.174 5.634e-004   728  1457   3.6  -0.1   0.8  -10.2   76.6    2.1  3.0 0.0  0 1 1 2  2.292 2.292  30.0   2.3   0.0  0.000  1  80.0   0    0 0  0   0.0
31  1   2  1 0 2  65 16 100   96 96    0.0  2.174 5.634e-004   689  1377   3.6  -0.1   0.8  -10.3   79.6    2.3  3.0 0.0  0 1 1 2  2.292 2.292  30.0   2.3   0.0  0.000  1  80.0   0    0 0  0   0.0
32  1   2  1 0 2  66 16 100   96 96    0.0  2.174 5.634e-004   710  1419   3.6  -0.1   0.8  -10.3   82.6    2.4  3.0 0.0  0 1 1 2  2.292 2.292  30.0   2.3   0.0  0.000  1  80.0   0    0 0  0   0.0
33  1   2  1 0 2  67 16 100   96 96    0.0  2.174 5.634e-004   711  1421   3.6  -0.1   0.8  -10.4   85.6    2.6  3.0 0.0  0 1 1 2  2.292 2.292  30.0   2.3   0.0  0.000  1  80.0   0    0 0  0   0.0
34  1   2  1 0 2  68 16 100   96 96    0.0  2.174 5.634e-004   777  1555   3.6  -0.1   0.8  -10.4   88.6    2.8  3.0 0.0  0 1 1 2  2.292 2.292  30.0   2.3   0.0  0.000  1  80.0   0    0 0  0   0.0
35  1   2  1 0 2  69 16 100   96 96    0.0  2.174 5.634e-004   734  1468   3.6  -0.1   0.8  -10.5   91.6    3.0  3.0 0.0  0 1 1 2  2.292 2.292  30.0   2.3   0.0  0.000  1  80.0   0    0 0  0   0.0
 1  1   3  1 0 2  70 16 100   96 96    0.0  2.174 5.634e-004  1020  2040   3.6  -0.1   0.8   -9.0  -10.2   -3.4  3.0 0.0  0 1 1 2  2.292 2.292  30.0   4.6   0.0  0.000  1  80.0   0    0 0  0   0.0
 2  1   3  1 0 2  71 16 100   96 96    0.0  2.174 5.634e-004   950  1900   3.6  -0.1   0.8   -9.0   -7.2   -3.2  3.0 0.0  0 1 1 2  2.292 2.292  30.0   4.6   0.0  0.000  1  80.0   0    0 0  0   0.0
 3  1   3  1 0 2  72 16 100   96 96    0.0  2.174 5.634e-004   991  1982   3.6  -0.1   0.8   -9.1   -4.2   -3.0  3.0 0.0  0 1 1 2  2.292 2.292  30.0   4.6   0.0  0.000  1  80.0   0    0 0  0   0.0
 4  1   3  1 0 2  73 16 100   96 96    0.0  2.174 5.634e-004  1067  2134   3.6  -0.1   0.8   -9.1   -1.2   -2.8  3.0 0.0  0 1 1 2  2.292 2.292  30.0   4.6   0.0  0.000  1  80.0   0    0 0  0   0.0
 5  1   3  1 0 2  74 16 100   96 96    0.0  2.174 5.634e-004  1148  2296   3.6  -0.1   0.8   -9.1    1.8   -2.6  3.0 0.0  0 1 1 2  2.292 2.292  30.0   4.6   0.0  0.000  1  80.0   0    0 0  0   0.0
 6  1   3  1 0 2  75 16 100   96 96    0.0  2.174 5.634e-004  1083  2165   3.6  -0.1   0.8   -9.2    4.8   -2.4  3.0 0.0  0 1 1 2  2.292 2.292  30.0   4.6   0.0  0.000  1  80.0   0    0 0  0   0.0
 7  1   3  1 0 2  76 16 100   96 96    0.0  2.174 5.634e-004  1015  2030   3.6  -0.1   0.8   -9.2    7.8   -2.2  3.0 0.0  0 1 1 2  2.292 2.292  30.0   4.6   0.0  0.000  1  80.0   0    0 0  0   0.0
 8  1   3  1 0 2  77 16 100   96 96    0.0  2.174 5.634e-004   997  1994   3.6  -0.1   0.8   -9.3   10.8   -2.0  3.0 0.0  0 1 1 2  2.292 2.292  30.0   4.6   0.0  0.000  1  80.0   0    0 0  0   0.0
 9  1   3  1 0 2  78 16 100   96 96    0.0  2.174 5.634e-004  1038  2077   3.6  -0.1   0.8   -9.3   13.8   -1.9  3.0 0.0  0 1 1 2  2.292 2.292  30.0   4.6   0.0  0.000  1  80.0   0    0 0  0   0.0
10  1   3  1 0 2  79 16 100   96 96    0.0  2.174 5.634e-004   926  1851   3.6  -0.1   0.8   -9.4   16.8   -1.7  3.0 0.0  0 1 1 2  2.292 2.292  30.0   4.6   0.0  0.000  1  80.0   0    0 0  0   0.0
11  1   3  1 0 2  80 16 100   96 96    0.0  2.174 5.634e-004   930  1860   3.6  -0.1   0.8   -9.4   19.8   -1.5  3.0 0.0  0 1 1 2  2.292 2.292  30.0   4.6   0.0  0.000  1  80.0   0    0 0  0   0.0
12  1   3  1 0 2  81 16 100   96 96    0.0  2.174 5.634e-004  1065  2131   3.6  -0.1   0.8   -9.4   22.7   -1.3  3.0 0.0  0 1 1 2  2.292 2.292  30.0   4.6   0.0  0.000  1  80.0   0    0 0  0   0.0
13  1   3  1 0 2  82 16 100   96 96    0.0  2.174 5.634e-004   941  1881   3.6  -0.1   0.8   -9.5   25.7   -1.1  3.0 0.0  0 1 1 2  2.292 2.292  30.0   4.6   0.0  0.000  1  80.0   0    0 0  0   0.0
14  1   3  1 0 2  83 16 100   96 96    0.0  2.174 5.634e-004   958  1916   3.6  -0.1   0.8   -9.5   28.7   -0.9  3.0 0.0  0 1 1 2  2.292 2.292  30.0   4.6   0.0  0.000  1  80.0   0    0 0  0   0.0
15  1   3  1 0 2  84 16 100   96 96    0.0  2.174 5.634e-004   923  1845   3.6  -0.1   0.8   -9.6   31.7   -0.7  3.0 0.0  0 1 1 2  2.292 2.292  30.0   4.6   0.0  0.000  1  80.0   0    0 0  0   0.0
16  1   3  1 0 2  85 16 100   96 96    0.0  2.174 5.634e-004   923  1846   3.6  -0.1   0.8   -9.6   34.7   -0.6  3.0 0.0  0 1 1 2  2.292 2.292  30.0   4.6   0.0  0.000  1  80.0   0    0 0  0   0.0
17  1   3  1 0 2  86 16 100   96 96    0.0  2.174 5.634e-004   929  1857   3.6  -0.1   0.8   -9.7   37.7   -0.4  3.0 0.0  0 1 1 2  2.292 2.292  30.0   4.6   0.0  0.000  1  80.0   0    0 0  0   0.0
18  1   3  1 0 2  87 16 100   96 96    0.0  2.174 5.634e-004   984  1967   3.6  -0.1   0.8   -9.7   40.7   -0.2  3.0 0.0  0 1 1 2  2.292 2.292  30.0   4.6   0.0  0.000  1  80.0   0    0 0  0   0.0
19  1   3  1 0 2  88 16 100   96 96    0.0  2.174 5.634e-004  1013  2026   3.6  -0.1   0.8   -9.8   43.7    0.0  3.0 0.0  0 1 1 2  2.292 2.292  30.0   4.6   0.0  0.000  1  80.0   0    0 0  0   0.0
20  1   3  1 0 2  89 16 100   96 96    0.0  2.174 5.634e-004  1015  2030   3.6  -0.1   0.8   -9.8   46.7    0.2  3.0 0.0  0 1 1 2  2.292 2.292  30.0   4.6   0.0  0.000  1  80.0   0    0 0  0   0.0
21  1   3  1 0 2  90 16 100   96 96    0.0  2.174 5.634e-004   979  1958   3.6  -0.1   0.8   -9.8   49.7    0.4  3.0 0.0  0 1 1 2  2.292 2.292  30.0   4.6   0.0  0.000  1  80.0   0    0 0  0   0.0
22  1   3  1 0 2  91 16 100   96 96    0.0  2.174 5.634e-004  1000  2000   3.6  -0.1   0.8   -9.9   52.7    0.6  3.0 0.0  0 1 1 2  2.292 2.292  30.0   4.6   0.0  0.000  1  80.0   0    0 0  0   0.0
23  1   3  1 0 2  92 16 100   96 96    0.0  2.174 5.634e-004   965  1929   3.6  -0.1   0.8   -9.9   55.7    0.8  3.0 0.0  0 1 1 2  2.292 2.292  30.0   4.6   0.0  0.000  1  80.0   0    0 0  0   0.0
24  1   3  1 0 2  93 16 100   96 96    0.0  2.174 5.634e-004   881  1762   3.6  -0.1   0.8  -10.0   58.7    0.9  3.0 0.0  0 1 1 2  2.292 2.292  30.0   4.6   0.0  0.000  1  80.0   0    0 0  0   0.0
25  1   3  1 0 2  94 16 100   96 96    0.0  2.174 5.634e-004   820  1639   3.6  -0.1   0.8  -10.0   61.7    1.1  3.0 0.0  0 1 1 2  2.292 2.292  30.0   4.6   0.0  0.000  1  80.0   0    0 0  0   0.0
26  1   3  1 0 2  95 16 100   96 96    0.0  2.174 5.634e-004   767  1533   3.6  -0.1   0.8  -10.1   64.7    1.3  3.0 0.0  0 1 1 2  2.292 2.292  30.0   4.6   0.0  0.000  1  80.0   0    0 0  0   0.0
27  1   3  1 0 2  96 16 100   96 96    0.0  2.174 5.634e-004   708  1416   3.6  -0.1   0.8  -10.1   67.7    1.5  3.0 0.0  0 1 1 2  2.292 2.292  30.0   4.6   0.0  0.000  1  80.0   0    0 0  0   0.0
28  1   3  1 0 2  97 16 100   96 96    0.0  2.174 5.634e-004   738  1476   3.6  -0.1   0.8  -10.1   70.6    1.7  3.0 0.0  0 1 1 2  2.292 2.292  30.0   4.6   0.0  0.000  1  80.0   0    0 0  0   0.0
29  1   3  1 0 2  98 16 100   96 96    0.0  2.174 5.634e-004   705  1409   3.6  -0.1   0.8  -10.2   73.6    1.9  3.0 0.0  0 1 1 2  2.292 2.292  30.0   4.6   0.0  0.000  1  80.0   0    0 0  0   0.0
30  1   3  1 0 2  99 16 100   96 96    0.0  2.174 5.634e-004   732  1465   3.6  -0.1   0.8  -10.2   76.6    2.1  3.0 0.0  0 1 1 2  2.292 2.292  30.0   4.6   0.0  0.000  1  80.0   0    0 0  0   0.0
31  1   3  1 0 2 100 16 100   96 96    0.0  2.174 5.634e-004   690  1381   3.6  -0.1   0.8  -10.3   79.6    2.3  3.0 0.0  0 1 1 2  2.292 2.292  30.0   4.6   0.0  0.000  1  80.0   0    0 0  0   0.0
32  1   3  1 0 2 101 16 100   96 96    0.0  2.174 5.634e-004   710  1419   3.6  -0.1   0.8  -10.3   82.6    2.4  3.0 0.0  0 1 1 2  2.292 2.292  30.0   4.6   0.0  0.000  1  80.0   0    0 0  0   0.0
33  1   3  1 0 2 102 16 100   96 96    0.0  2.174 5.634e-004   711  1422   3.6  -0.1   0.8  -10.4   85.6    2.6  3.0 0.0  0 1 1 2  2.292 2.292  30.0   4.6   0.0  0.000  1  80.0   0    0 0  0   0.0
34  1   3  1 0 2 103 16 100   96 96    0.0  2.174 5.634e-004   763  1527   3.6  -0.1   0.8  -10.4   88.6    2.8  3.0 0.0  0 1 1 2  2.292 2.292  30.0   4.6   0.0  0.000  1  80.0   0    0 0  0   0.0
35  1   3  1 0 2 104 16 100   96 96    0.0  2.174 5.634e-004   740  1480   3.6  -0.1   0.8  -10.5   91.6    3.0  3.0 0.0  0 1 1 2  2.292 2.292  30.0   4.6   0.0  0.000  1  80.0   0    0 0  0   0.0
 1  1   4  1 0 2 105 16 100   96 96    0.0  2.174 5.634e-004   968  1936   3.6  -0.1   0.8   -9.0  -10.2   -3.4  3.0 0.0  0 1 1 2  2.292 2.292  30.0   6.9   0.0  0.000  1  80.0   0    0 0  0   0.0
 2  1   4  1 0 2 106 16 100   96 96    0.0  2.174 5.634e-004   967  1934   3.6  -0.1   0.8   -9.0   -7.2   -3.2  3.0 0.0  0 1 1 2  2.292 2.292  30.0   6.9   0.0  0.000  1  80.0   0    0 0  0   0.0
 3  1   4  1 0 2 107 16 100   96 96    0.0  2.174 5.634e-004   968  1936   3.6  -0.1   0.8   -9.1   -4.2   -3.0  3.0 0.0  0 1 1 2  2.292 2.292  30.0   6.9   0.0  0.000  1  80.0   0    0 0  0   0.0
 4  1   4  1 0 2 108 16 100   96 96    0.0  2.174 5.634e-004  1057  2113   3.6  -0.1   0.8   -9.1   -1.2   -2.8  3.0 0.0  0 1 1 2  2.292 2.292  30.0   6.9   0.0  0.000  1  80.0   0    0 0  0   0.0
 5  1   4  1 0 2 109 16 100   96 96    0.0  2.174 5.634e-004  1087  2174   3.6  -0.1   0.8   -9.1    1.8   -2.6  3.0 0.0  0 1 1 2  2.292 2.292  30.0   6.9   0.0  0.000  1  80.0   0    0 0  0   0.0
 6  1   4  1 0 2 110 16 100   96 96    0.0  2.174 5.634e-004  1060  2119   3.6  -0.1   0.8   -9.2    4.8   -2.4  3.0 0.0  0 1 1 2  2.292 2.292  30.0   6.9   0.0  0.000  1  80.0   0    0 0  0   0.0
 7  1   4  1 0 2 111 16 100   96 96    0.0  2.174 5.634e-004  1036  2072   3.6  -0.1   0.8   -9.2    7.8   -2.2  3.0 0.0  0 1 1 2  2.292 2.292  30.0   6.9   0.0  0.000  1  80.0   0    0 0  0   0.0
 8  1   4  1 0 2 112 16 100   96 96    0.0  2.174 5.634e-004   965  1929   3.6  -0.1   0.8   -9.3   10.8   -2.0  3.0 0.0  0 1 1 2  2.292 2.292  30.0   6.9   0.0  0.000  1  80.0   0    0 0  0   0.0
 9  1   4  1 0 2 113 16 100   96 96    0.0  2.174 5.634e-004  1046  2092   3.6  -0.1   0.8   -9.3   13.8   -1.9  3.0 0.0  0 1 1 2  2.292 2.292  30.0   6.9   0.0  0.000  1  80.0   0    0 0  0   0.0
10  1   4  1 0 2 114 16 100   96 96    0.0  2.174 5.634e-004   926  1851   3.6  -0.1   0.8   -9.4   16.8   -1.7  3.0 0.0  0 1 1 2  2.292 2.292  30.0   6.9   0.0  0.000  1  80.0   0    0 0  0   0.0
11  1   4  1 0 2 115 16 100   96 96    0.0  2.174 5.634e-004  1028  2055   3.6  -0.1   0.8   -9.4   19.8   -1.5  3.0 0.0  0 1 1 2  2.292 2.292  30.0   6.9   0.0  0.000  1  80.0   0    0 0  0   0.0
12  1   4  1 0 2 116 16 100   96 96    0.0  2.174 5.634e-004  1041  2081   3.6  -0.1   0.8   -9.4   22.7   -1.3  3.0 0.0  0 1 1 2  2.292 2.292  30.0   6.9   0.0  0.000  1  80.0   0    0 0  0   0.0
13  1   4  1 0 2 117 16 100   96 96    0.0  2.174 5.634e-004   962  1923   3.6  -0.1   0.8   -9.5   25.7   -1.1  3.0 0.0  0 1 1 2  2.292 2.292  30.0   6.9   0.0  0.000  1  80.0   0    0 0  0   0.0
14  1   4  1 0 2 118 16 100   96 96    0.0  2.174 5.634e-004   934  1869   3.6  -0.1   0.8   -9.5   28.7   -0.9  3.0 0.0  0 1 1 2  2.292 2.292  30.0   6.9   0.0  0.000  1  80.0   0    0 0  0   0.0
15  1   4  1 0 2 119 16 100   96 96    0.0  2.174 5.634e-004   940  1880   3.6  -0.1   0.8   -9.6   31.7   -0.7  3.0 0.0  0 1 1 2  2.292 2.292  30.0   6.9   0.0  0.000  1  80.0   0    0 0  0   0.0
16  1   4  1 0 2 120 16 100   96 96    0.0  2.174 5.634e-004   912  1824   3.6  -0.1   0.8   -9.6   34.7   -0.6  3.0 0.0  0 1 1 2  2.292 2.292  30.0   6.9   0.0  0.000  1  80.0   0    0 0  0   0.0
17  1   4  1 0 2 121 16 100   96 96    0.0  2.174 5.634e-004   902  1804   3.6  -0.1   0.8   -9.7   37.7   -0.4  3.0 0.0  0 1 1 2  2.292 2.292  30.0   6.9   0.0  0.000  1  80.0   0    0 0  0   0.0
18  1   4  1 0 2 122 16 100   96 96    0.0  2.174 5.634e-004  1014  2028   3.6  -0.1   0.8   -9.7   40.7   -0.2  3.0 0.0  0 1 1 2  2.292 2.292  30.0   6.9   0.0  0.000  1  80.0   0    0 0  0   0.0
19  1   4  1 0 2 123 16 100   96 96    0.0  2.174 5.634e-004  1001  2002   3.6  -0.1   0.8   -9.8   43.7    0.0  3.0 0.0  0 1 1 2  2.292 2.292  30.0   6.9   0.0  0.000  1  80.0   0    0 0  0   0.0
20  1   4  1 0 2 124 16 100   96 96    0.0  2.174 5.634e-004  1002  2003   3.6  -0.1   0.8   -9.8   46.7    0.2  3.0 0.0  0 1 1 2  2.292 2.292  30.0   6.9   0.0  0.000  1  80.0   0    0 0  0   0.0
21  1   4  1 0 2 125 16 100   96 96    0.0  2.174 5.634e-004   980  1960   3.6  -0.1   0.8   -9.8   49.7    0.4  3.0 0.0  0 1 1 2  2.292 2.292  30.0   6.9   0.0  0.000  1  80.0   0    0 0  0   0.0
22  1   4  1 0 2 126 16 100   96 96    0.0  2.174 5.634e-004  1006  2012   3.6  -0.1   0.8   -9.9   52.7    0.6  3.0 0.0  0 1 1 2  2.292 2.292  30.0   6.9   0.0  0.000  1  80.0   0    0 0  0   0.0
